# Based on deg 5 polynomial fit to  "empty" Random 3.5" apertures with fixed g > 24.3 limit 
# Fiber model scaled down by deconvolving aperture with seeing FWHM.
# Model from median stack of "empty" apertures from shots from 2020.
# Spectra are de-reddened prior to stacking.
# Per Fiber flux densities as erg/s/cm2/AA e-17
# gmag 25.80    25.77    25.75    25.74    25.67    25.66    25.67    25.62    25.61    25.65    25.62    25.58    25.70    25.69    25.79    25.65    25.86    25.95    26.25     
# WAVE 1.2      1.3      1.4      1.5      1.6      1.7      1.8      1.9      2.0      2.1      2.2      2.3      2.4      2.5      2.6      2.7      2.8      2.9      3.0       
3470.0 0.029212 0.029588 0.026165 0.024505 0.025250 0.025440 0.023562 0.022031 0.022503 0.021928 0.021474 0.019159 0.018466 0.021329 0.017653 0.016835 0.021184 0.017047 0.018230  
3472.0 0.028985 0.029352 0.025969 0.024325 0.025056 0.025245 0.023391 0.021871 0.022337 0.021764 0.021304 0.019019 0.018337 0.021159 0.017521 0.016714 0.021004 0.016920 0.018078  
3474.0 0.028759 0.029119 0.025776 0.024146 0.024862 0.025050 0.023221 0.021711 0.022172 0.021601 0.021135 0.018880 0.018208 0.020990 0.017390 0.016595 0.020826 0.016793 0.017926  
3476.0 0.028536 0.028888 0.025584 0.023968 0.024671 0.024858 0.023053 0.021553 0.022008 0.021440 0.020968 0.018742 0.018080 0.020823 0.017259 0.016477 0.020649 0.016668 0.017776  
3478.0 0.028314 0.028660 0.025393 0.023792 0.024481 0.024667 0.022885 0.021397 0.021846 0.021279 0.020802 0.018605 0.017952 0.020657 0.017130 0.016359 0.020474 0.016543 0.017627  
3480.0 0.028094 0.028433 0.025204 0.023617 0.024292 0.024478 0.022719 0.021241 0.021684 0.021120 0.020637 0.018468 0.017826 0.020492 0.017001 0.016243 0.020300 0.016419 0.017478  
3482.0 0.027876 0.028208 0.025016 0.023444 0.024105 0.024289 0.022554 0.021086 0.021524 0.020962 0.020473 0.018333 0.017700 0.020328 0.016874 0.016126 0.020127 0.016296 0.017331  
3484.0 0.027660 0.027984 0.024830 0.023271 0.023919 0.024103 0.022390 0.020932 0.021365 0.020805 0.020311 0.018199 0.017575 0.020165 0.016747 0.016011 0.019955 0.016174 0.017186  
3486.0 0.027446 0.027763 0.024645 0.023100 0.023735 0.023917 0.022227 0.020780 0.021207 0.020649 0.020149 0.018066 0.017451 0.020004 0.016621 0.015897 0.019785 0.016053 0.017041  
3488.0 0.027234 0.027543 0.024462 0.022931 0.023552 0.023733 0.022066 0.020629 0.021050 0.020494 0.019989 0.017933 0.017328 0.019843 0.016496 0.015783 0.019616 0.015932 0.016897  
3490.0 0.027023 0.027326 0.024281 0.022763 0.023371 0.023551 0.021906 0.020478 0.020894 0.020340 0.019831 0.017802 0.017206 0.019684 0.016372 0.015670 0.019448 0.015812 0.016754  
3492.0 0.026814 0.027111 0.024101 0.022596 0.023192 0.023370 0.021747 0.020329 0.020739 0.020188 0.019673 0.017672 0.017085 0.019526 0.016249 0.015558 0.019281 0.015693 0.016613  
3494.0 0.026608 0.026897 0.023922 0.022430 0.023012 0.023189 0.021587 0.020180 0.020585 0.020035 0.019515 0.017541 0.016962 0.019368 0.016125 0.015446 0.019115 0.015574 0.016471  
3496.0 0.026403 0.026686 0.023744 0.022265 0.022835 0.023010 0.021429 0.020032 0.020431 0.019883 0.019359 0.017411 0.016841 0.019211 0.016002 0.015334 0.018949 0.015455 0.016330  
3498.0 0.026201 0.026476 0.023569 0.022102 0.022658 0.022833 0.021273 0.019885 0.020278 0.019733 0.019203 0.017282 0.016721 0.019055 0.015880 0.015223 0.018785 0.015337 0.016191  
3500.0 0.026000 0.026268 0.023394 0.021940 0.022484 0.022656 0.021117 0.019739 0.020127 0.019583 0.019049 0.017154 0.016601 0.018900 0.015759 0.015113 0.018622 0.015221 0.016052  
3502.0 0.025801 0.026062 0.023221 0.021779 0.022311 0.022481 0.020963 0.019594 0.019976 0.019435 0.018896 0.017027 0.016483 0.018747 0.015639 0.015004 0.018461 0.015104 0.015915  
3504.0 0.025604 0.025857 0.023049 0.021620 0.022139 0.022308 0.020809 0.019450 0.019827 0.019287 0.018744 0.016901 0.016365 0.018594 0.015520 0.014895 0.018301 0.014989 0.015779  
3506.0 0.025408 0.025654 0.022879 0.021462 0.021968 0.022135 0.020657 0.019308 0.019679 0.019141 0.018594 0.016776 0.016248 0.018443 0.015402 0.014787 0.018141 0.014874 0.015643  
3508.0 0.025213 0.025453 0.022710 0.021305 0.021799 0.021965 0.020507 0.019166 0.019533 0.018996 0.018444 0.016652 0.016131 0.018293 0.015284 0.014680 0.017984 0.014761 0.015509  
3510.0 0.025020 0.025254 0.022542 0.021149 0.021631 0.021795 0.020357 0.019026 0.019387 0.018853 0.018296 0.016529 0.016016 0.018144 0.015168 0.014574 0.017827 0.014648 0.015376  
3512.0 0.024829 0.025056 0.022376 0.020994 0.021465 0.021627 0.020208 0.018886 0.019242 0.018710 0.018149 0.016407 0.015901 0.017997 0.015052 0.014469 0.017672 0.014536 0.015244  
3514.0 0.024639 0.024860 0.022211 0.020841 0.021300 0.021461 0.020061 0.018748 0.019099 0.018568 0.018003 0.016286 0.015788 0.017850 0.014937 0.014364 0.017518 0.014424 0.015113  
3516.0 0.024451 0.024666 0.022047 0.020689 0.021137 0.021295 0.019914 0.018611 0.018956 0.018428 0.017858 0.016166 0.015675 0.017705 0.014823 0.014260 0.017365 0.014313 0.014983  
3518.0 0.024264 0.024472 0.021884 0.020538 0.020973 0.021131 0.019768 0.018474 0.018814 0.018288 0.017715 0.016046 0.015562 0.017560 0.014710 0.014156 0.017213 0.014204 0.014854  
3520.0 0.024076 0.024278 0.021720 0.020385 0.020810 0.020965 0.019622 0.018337 0.018672 0.018148 0.017571 0.015927 0.015450 0.017416 0.014597 0.014053 0.017062 0.014094 0.014725  
3522.0 0.023890 0.024085 0.021557 0.020234 0.020647 0.020801 0.019477 0.018201 0.018531 0.018009 0.017428 0.015808 0.015338 0.017273 0.014485 0.013951 0.016912 0.013985 0.014598  
3524.0 0.023705 0.023893 0.021395 0.020084 0.020486 0.020639 0.019333 0.018066 0.018392 0.017871 0.017287 0.015690 0.015228 0.017132 0.014374 0.013850 0.016764 0.013877 0.014471  
3526.0 0.023522 0.023704 0.021236 0.019935 0.020326 0.020477 0.019189 0.017932 0.018253 0.017734 0.017147 0.015574 0.015118 0.016991 0.014263 0.013749 0.016616 0.013770 0.014346  
3528.0 0.023341 0.023516 0.021077 0.019787 0.020168 0.020317 0.019047 0.017800 0.018115 0.017599 0.017008 0.015458 0.015008 0.016851 0.014153 0.013649 0.016470 0.013664 0.014222  
3530.0 0.023161 0.023330 0.020919 0.019641 0.020011 0.020158 0.018906 0.017668 0.017978 0.017464 0.016870 0.015343 0.014900 0.016713 0.014045 0.013549 0.016325 0.013558 0.014098  
3532.0 0.022983 0.023145 0.020763 0.019495 0.019855 0.020001 0.018767 0.017537 0.017843 0.017330 0.016733 0.015229 0.014792 0.016575 0.013936 0.013451 0.016180 0.013453 0.013976  
3534.0 0.022806 0.022962 0.020608 0.019351 0.019701 0.019845 0.018628 0.017407 0.017708 0.017198 0.016597 0.015115 0.014686 0.016439 0.013829 0.013353 0.016038 0.013348 0.013854  
3536.0 0.022631 0.022781 0.020455 0.019209 0.019548 0.019690 0.018490 0.017279 0.017574 0.017066 0.016462 0.015003 0.014579 0.016304 0.013723 0.013256 0.015896 0.013245 0.013734  
3538.0 0.022457 0.022601 0.020302 0.019067 0.019396 0.019536 0.018354 0.017151 0.017442 0.016936 0.016329 0.014891 0.014474 0.016169 0.013617 0.013159 0.015755 0.013142 0.013614  
3540.0 0.022285 0.022424 0.020151 0.018926 0.019245 0.019384 0.018218 0.017024 0.017311 0.016806 0.016196 0.014781 0.014369 0.016036 0.013512 0.013063 0.015616 0.013040 0.013496  
3542.0 0.022115 0.022247 0.020002 0.018787 0.019096 0.019233 0.018084 0.016898 0.017180 0.016678 0.016065 0.014671 0.014265 0.015904 0.013408 0.012968 0.015478 0.012938 0.013378  
3544.0 0.021946 0.022073 0.019853 0.018649 0.018948 0.019083 0.017950 0.016774 0.017051 0.016550 0.015934 0.014562 0.014162 0.015773 0.013305 0.012874 0.015340 0.012838 0.013261  
3546.0 0.021779 0.021899 0.019706 0.018512 0.018801 0.018935 0.017818 0.016650 0.016922 0.016424 0.015805 0.014454 0.014059 0.015642 0.013202 0.012780 0.015204 0.012737 0.013145  
3548.0 0.021613 0.021727 0.019560 0.018376 0.018656 0.018787 0.017686 0.016527 0.016794 0.016298 0.015676 0.014346 0.013958 0.015513 0.013100 0.012687 0.015069 0.012638 0.013030  
3550.0 0.021448 0.021557 0.019415 0.018241 0.018511 0.018641 0.017556 0.016405 0.016668 0.016173 0.015549 0.014239 0.013856 0.015385 0.012999 0.012594 0.014934 0.012539 0.012916  
3552.0 0.021285 0.021388 0.019272 0.018107 0.018368 0.018496 0.017426 0.016284 0.016542 0.016049 0.015422 0.014134 0.013756 0.015258 0.012899 0.012502 0.014801 0.012441 0.012803  
3554.0 0.021124 0.021221 0.019129 0.017974 0.018226 0.018352 0.017298 0.016164 0.016418 0.015926 0.015297 0.014029 0.013656 0.015131 0.012799 0.012411 0.014669 0.012344 0.012691  
3556.0 0.020964 0.021055 0.018988 0.017843 0.018086 0.018209 0.017170 0.016045 0.016294 0.015805 0.015173 0.013925 0.013557 0.015006 0.012700 0.012320 0.014539 0.012247 0.012579  
3558.0 0.020806 0.020892 0.018849 0.017713 0.017947 0.018069 0.017044 0.015927 0.016172 0.015684 0.015050 0.013822 0.013459 0.014882 0.012602 0.012230 0.014409 0.012151 0.012469  
3560.0 0.020649 0.020730 0.018711 0.017585 0.017810 0.017929 0.016920 0.015810 0.016050 0.015565 0.014928 0.013719 0.013362 0.014759 0.012505 0.012141 0.014280 0.012056 0.012359  
3562.0 0.020494 0.020570 0.018574 0.017457 0.017673 0.017791 0.016796 0.015695 0.015930 0.015446 0.014807 0.013618 0.013265 0.014637 0.012408 0.012053 0.014152 0.011961 0.012250  
3564.0 0.020341 0.020411 0.018439 0.017331 0.017538 0.017654 0.016673 0.015580 0.015811 0.015329 0.014687 0.013517 0.013169 0.014516 0.012312 0.011965 0.014026 0.011867 0.012142  
3566.0 0.020189 0.020253 0.018304 0.017205 0.017404 0.017518 0.016551 0.015466 0.015693 0.015212 0.014568 0.013417 0.013074 0.014396 0.012217 0.011878 0.013900 0.011774 0.012035  
3568.0 0.020038 0.020098 0.018171 0.017081 0.017272 0.017383 0.016430 0.015353 0.015575 0.015097 0.014450 0.013318 0.012979 0.014277 0.012123 0.011791 0.013776 0.011681 0.011929  
3570.0 0.019888 0.019943 0.018039 0.016958 0.017140 0.017250 0.016311 0.015241 0.015459 0.014982 0.014334 0.013220 0.012885 0.014159 0.012029 0.011705 0.013652 0.011589 0.011824  
3572.0 0.019740 0.019790 0.017908 0.016836 0.017009 0.017117 0.016192 0.015130 0.015344 0.014868 0.014218 0.013123 0.012792 0.014041 0.011936 0.011620 0.013530 0.011498 0.011720  
3574.0 0.019593 0.019638 0.017778 0.016714 0.016880 0.016986 0.016074 0.015020 0.015229 0.014755 0.014103 0.013026 0.012700 0.013925 0.011844 0.011536 0.013408 0.011407 0.011616  
3576.0 0.019448 0.019487 0.017649 0.016594 0.016752 0.016855 0.015957 0.014910 0.015115 0.014643 0.013989 0.012930 0.012608 0.013810 0.011753 0.011452 0.013288 0.011317 0.011514  
3578.0 0.019304 0.019338 0.017522 0.016475 0.016625 0.016726 0.015841 0.014802 0.015003 0.014532 0.013876 0.012835 0.012517 0.013696 0.011662 0.011368 0.013169 0.011228 0.011412  
3580.0 0.019161 0.019190 0.017395 0.016357 0.016499 0.016598 0.015726 0.014695 0.014891 0.014422 0.013764 0.012741 0.012426 0.013582 0.011572 0.011286 0.013050 0.011140 0.011311  
3582.0 0.019019 0.019044 0.017270 0.016240 0.016374 0.016471 0.015611 0.014588 0.014780 0.014313 0.013653 0.012647 0.012336 0.013470 0.011483 0.011204 0.012933 0.011051 0.011211  
3584.0 0.018879 0.018899 0.017145 0.016124 0.016250 0.016345 0.015498 0.014482 0.014670 0.014204 0.013543 0.012554 0.012247 0.013358 0.011394 0.011122 0.012816 0.010964 0.011112  
3586.0 0.018740 0.018755 0.017022 0.016008 0.016127 0.016220 0.015385 0.014377 0.014561 0.014097 0.013433 0.012462 0.012158 0.013247 0.011306 0.011041 0.012701 0.010877 0.011013  
3588.0 0.018602 0.018613 0.016900 0.015894 0.016006 0.016097 0.015274 0.014273 0.014452 0.013990 0.013325 0.012371 0.012070 0.013138 0.011219 0.010961 0.012586 0.010791 0.010916  
3590.0 0.018466 0.018472 0.016778 0.015781 0.015885 0.015974 0.015163 0.014170 0.014345 0.013884 0.013218 0.012280 0.011983 0.013029 0.011132 0.010881 0.012473 0.010706 0.010819  
3592.0 0.018330 0.018332 0.016658 0.015669 0.015766 0.015852 0.015053 0.014067 0.014238 0.013779 0.013111 0.012190 0.011897 0.012921 0.011046 0.010802 0.012360 0.010621 0.010723  
3594.0 0.018196 0.018193 0.016539 0.015557 0.015647 0.015732 0.014945 0.013965 0.014133 0.013675 0.013006 0.012101 0.011811 0.012814 0.010961 0.010724 0.012248 0.010537 0.010628  
3596.0 0.018064 0.018056 0.016421 0.015447 0.015529 0.015612 0.014837 0.013865 0.014028 0.013572 0.012901 0.012012 0.011725 0.012707 0.010876 0.010646 0.012138 0.010453 0.010533  
3598.0 0.017932 0.017920 0.016304 0.015337 0.015413 0.015493 0.014729 0.013765 0.013924 0.013469 0.012797 0.011925 0.011640 0.012602 0.010792 0.010569 0.012028 0.010370 0.010439  
3600.0 0.017801 0.017785 0.016188 0.015229 0.015298 0.015376 0.014623 0.013666 0.013821 0.013367 0.012694 0.011837 0.011556 0.012498 0.010709 0.010492 0.011919 0.010288 0.010347  
3602.0 0.017672 0.017651 0.016073 0.015121 0.015183 0.015259 0.014518 0.013567 0.013718 0.013267 0.012592 0.011751 0.011473 0.012394 0.010626 0.010416 0.011811 0.010206 0.010254  
3604.0 0.017544 0.017519 0.015959 0.015014 0.015070 0.015144 0.014413 0.013470 0.013617 0.013167 0.012491 0.011665 0.011390 0.012291 0.010544 0.010340 0.011704 0.010125 0.010163  
3606.0 0.017417 0.017388 0.015845 0.014909 0.014958 0.015029 0.014309 0.013373 0.013516 0.013068 0.012390 0.011580 0.011308 0.012189 0.010462 0.010265 0.011598 0.010044 0.010073  
3608.0 0.017292 0.017258 0.015733 0.014804 0.014846 0.014916 0.014207 0.013277 0.013416 0.012969 0.012291 0.011496 0.011226 0.012088 0.010382 0.010191 0.011493 0.009964 0.009983  
3610.0 0.017167 0.017129 0.015622 0.014700 0.014736 0.014803 0.014104 0.013182 0.013317 0.012872 0.012193 0.011412 0.011145 0.011988 0.010302 0.010117 0.011388 0.009884 0.009894  
3612.0 0.017044 0.017002 0.015512 0.014597 0.014627 0.014692 0.014003 0.013087 0.013219 0.012775 0.012095 0.011329 0.011065 0.011889 0.010222 0.010044 0.011285 0.009806 0.009806  
3614.0 0.016922 0.016875 0.015403 0.014494 0.014518 0.014581 0.013903 0.012994 0.013122 0.012679 0.011998 0.011247 0.010985 0.011790 0.010143 0.009971 0.011182 0.009727 0.009718  
3616.0 0.016800 0.016750 0.015295 0.014393 0.014411 0.014471 0.013803 0.012901 0.013025 0.012584 0.011902 0.011166 0.010905 0.011692 0.010065 0.009899 0.011081 0.009650 0.009631  
3618.0 0.016680 0.016626 0.015187 0.014293 0.014304 0.014362 0.013704 0.012809 0.012929 0.012489 0.011807 0.011085 0.010827 0.011596 0.009987 0.009827 0.010980 0.009573 0.009545  
3620.0 0.016561 0.016504 0.015081 0.014193 0.014199 0.014255 0.013607 0.012717 0.012834 0.012396 0.011712 0.011005 0.010749 0.011499 0.009910 0.009756 0.010880 0.009496 0.009460  
3622.0 0.016443 0.016382 0.014976 0.014094 0.014094 0.014148 0.013509 0.012627 0.012740 0.012303 0.011619 0.010925 0.010671 0.011404 0.009834 0.009686 0.010781 0.009420 0.009375  
3624.0 0.016327 0.016261 0.014871 0.013996 0.013990 0.014042 0.013413 0.012537 0.012646 0.012211 0.011526 0.010846 0.010594 0.011310 0.009758 0.009616 0.010683 0.009345 0.009291  
3626.0 0.016211 0.016142 0.014767 0.013899 0.013888 0.013937 0.013317 0.012448 0.012554 0.012120 0.011434 0.010768 0.010518 0.011216 0.009683 0.009546 0.010586 0.009270 0.009208  
3628.0 0.016097 0.016024 0.014665 0.013803 0.013786 0.013833 0.013223 0.012360 0.012462 0.012029 0.011343 0.010690 0.010442 0.011123 0.009608 0.009477 0.010489 0.009196 0.009126  
3630.0 0.015983 0.015906 0.014563 0.013708 0.013685 0.013730 0.013129 0.012272 0.012370 0.011939 0.011252 0.010613 0.010367 0.011031 0.009534 0.009409 0.010394 0.009122 0.009044  
3632.0 0.015871 0.015790 0.014462 0.013613 0.013585 0.013628 0.013035 0.012185 0.012280 0.011850 0.011163 0.010537 0.010292 0.010940 0.009461 0.009341 0.010299 0.009049 0.008963  
3634.0 0.015759 0.015675 0.014362 0.013520 0.013486 0.013527 0.012943 0.012099 0.012190 0.011762 0.011074 0.010461 0.010218 0.010849 0.009388 0.009274 0.010205 0.008976 0.008883  
3636.0 0.015649 0.015561 0.014263 0.013427 0.013388 0.013426 0.012851 0.012014 0.012101 0.011675 0.010986 0.010386 0.010145 0.010759 0.009316 0.009207 0.010112 0.008904 0.008803  
3638.0 0.015539 0.015448 0.014165 0.013335 0.013290 0.013327 0.012760 0.011929 0.012013 0.011588 0.010899 0.010311 0.010072 0.010670 0.009244 0.009141 0.010019 0.008833 0.008724  
3640.0 0.015431 0.015336 0.014067 0.013243 0.013194 0.013228 0.012670 0.011845 0.011926 0.011502 0.010813 0.010237 0.010000 0.010582 0.009173 0.009075 0.009928 0.008762 0.008646  
3642.0 0.015323 0.015226 0.013971 0.013153 0.013099 0.013130 0.012581 0.011762 0.011839 0.011416 0.010727 0.010164 0.009928 0.010495 0.009103 0.009010 0.009837 0.008691 0.008569  
3644.0 0.015217 0.015116 0.013875 0.013063 0.013004 0.013033 0.012492 0.011679 0.011753 0.011331 0.010642 0.010091 0.009856 0.010408 0.009033 0.008945 0.009747 0.008621 0.008492  
3646.0 0.015112 0.015007 0.013780 0.012974 0.012910 0.012937 0.012404 0.011597 0.011668 0.011248 0.010558 0.010019 0.009786 0.010322 0.008963 0.008881 0.009658 0.008552 0.008415  
3648.0 0.015008 0.014899 0.013686 0.012886 0.012817 0.012842 0.012316 0.011516 0.011583 0.011164 0.010474 0.009948 0.009715 0.010237 0.008894 0.008817 0.009570 0.008483 0.008340  
3650.0 0.014904 0.014793 0.013593 0.012798 0.012725 0.012748 0.012230 0.011436 0.011499 0.011082 0.010392 0.009877 0.009646 0.010152 0.008826 0.008754 0.009482 0.008415 0.008265  
3652.0 0.014802 0.014687 0.013501 0.012712 0.012634 0.012654 0.012144 0.011356 0.011416 0.011000 0.010310 0.009807 0.009577 0.010068 0.008758 0.008691 0.009396 0.008347 0.008191  
3654.0 0.014700 0.014582 0.013409 0.012626 0.012543 0.012562 0.012059 0.011277 0.011334 0.010919 0.010229 0.009737 0.009508 0.009985 0.008691 0.008629 0.009310 0.008280 0.008117  
3656.0 0.014599 0.014479 0.013319 0.012541 0.012454 0.012470 0.011975 0.011198 0.011252 0.010838 0.010148 0.009668 0.009440 0.009903 0.008625 0.008567 0.009225 0.008213 0.008044  
3658.0 0.014500 0.014376 0.013229 0.012456 0.012365 0.012379 0.011891 0.011121 0.011171 0.010759 0.010068 0.009600 0.009372 0.009821 0.008559 0.008506 0.009140 0.008147 0.007972  
3660.0 0.014401 0.014274 0.013140 0.012373 0.012277 0.012289 0.011808 0.011043 0.011091 0.010679 0.009989 0.009532 0.009305 0.009740 0.008493 0.008445 0.009056 0.008081 0.007900  
3662.0 0.014303 0.014174 0.013051 0.012290 0.012190 0.012199 0.011726 0.010967 0.011011 0.010601 0.009911 0.009464 0.009239 0.009660 0.008428 0.008385 0.008974 0.008016 0.007829  
3664.0 0.014207 0.014074 0.012964 0.012208 0.012103 0.012111 0.011644 0.010891 0.010932 0.010523 0.009834 0.009398 0.009173 0.009581 0.008364 0.008325 0.008891 0.007951 0.007759  
3666.0 0.014111 0.013975 0.012877 0.012126 0.012018 0.012023 0.011563 0.010816 0.010854 0.010446 0.009757 0.009331 0.009107 0.009502 0.008300 0.008266 0.008810 0.007887 0.007689  
3668.0 0.014016 0.013877 0.012791 0.012046 0.011933 0.011936 0.011483 0.010741 0.010776 0.010370 0.009680 0.009266 0.009042 0.009424 0.008236 0.008207 0.008729 0.007823 0.007620  
3670.0 0.013921 0.013780 0.012706 0.011966 0.011849 0.011850 0.011404 0.010667 0.010699 0.010294 0.009605 0.009201 0.008977 0.009346 0.008173 0.008148 0.008649 0.007760 0.007551  
3672.0 0.013828 0.013684 0.012622 0.011886 0.011766 0.011764 0.011325 0.010594 0.010623 0.010219 0.009530 0.009136 0.008913 0.009270 0.008111 0.008090 0.008570 0.007697 0.007483  
3674.0 0.013736 0.013589 0.012538 0.011808 0.011684 0.011680 0.011247 0.010522 0.010547 0.010144 0.009456 0.009072 0.008850 0.009194 0.008049 0.008033 0.008492 0.007635 0.007416  
3676.0 0.013644 0.013495 0.012455 0.011730 0.011602 0.011596 0.011169 0.010449 0.010472 0.010071 0.009383 0.009009 0.008787 0.009118 0.007988 0.007976 0.008414 0.007573 0.007349  
3678.0 0.013554 0.013401 0.012373 0.011653 0.011521 0.011513 0.011092 0.010378 0.010397 0.009997 0.009310 0.008946 0.008724 0.009043 0.007927 0.007919 0.008337 0.007512 0.007283  
3680.0 0.013464 0.013309 0.012292 0.011576 0.011441 0.011431 0.011016 0.010307 0.010324 0.009925 0.009238 0.008883 0.008662 0.008969 0.007867 0.007863 0.008260 0.007451 0.007218  
3682.0 0.013375 0.013217 0.012211 0.011500 0.011361 0.011349 0.010940 0.010237 0.010251 0.009853 0.009166 0.008822 0.008601 0.008896 0.007807 0.007807 0.008185 0.007391 0.007153  
