# Based on deg 5 polynomial fit to  "empty" Random 3.5" apertures with fixed g > 24.3 limit
# Model from median stack of "empty" apertures from shots from 2020.
# Spectra are de-reddened prior to stacking.
# Per Aperture flux densities as erg/s/cm2/AA e-17
# gmag 25.08    24.95    24.92    24.85    24.79    24.74    24.68    24.63    24.57    24.49    24.46    24.40    24.41    24.35    24.27    24.20    24.22    24.16    24.07     
# WAVE 1.2      1.3      1.4      1.5      1.6      1.7      1.8      1.9      2.0      2.1      2.2      2.3      2.4      2.5      2.6      2.7      2.8      2.9      3.0       
3470.0 0.152427 0.172646 0.164056 0.166941 0.193557 0.200162 0.222408 0.201492 0.225323 0.250319 0.240054 0.221745 0.227952 0.257152 0.219676 0.236566 0.341660 0.276470 0.283270  
3472.0 0.151368 0.171435 0.162963 0.165859 0.192184 0.198819 0.220819 0.200207 0.223857 0.248534 0.238476 0.220435 0.226635 0.255562 0.218689 0.235464 0.339081 0.274909 0.281737  
3474.0 0.150317 0.170234 0.161878 0.164785 0.190822 0.197486 0.219243 0.198932 0.222401 0.246763 0.236910 0.219134 0.225328 0.253983 0.217708 0.234368 0.336523 0.273358 0.280215  
3476.0 0.149275 0.169042 0.160801 0.163719 0.189471 0.196164 0.217679 0.197667 0.220956 0.245006 0.235356 0.217844 0.224030 0.252416 0.216732 0.233279 0.333986 0.271818 0.278704  
3478.0 0.148241 0.167859 0.159733 0.162661 0.188130 0.194851 0.216127 0.196411 0.219522 0.243263 0.233814 0.216563 0.222742 0.250860 0.215762 0.232197 0.331469 0.270289 0.277203  
3480.0 0.147215 0.166685 0.158673 0.161612 0.186800 0.193548 0.214587 0.195165 0.218098 0.241534 0.232283 0.215292 0.221463 0.249316 0.214797 0.231122 0.328972 0.268771 0.275713  
3482.0 0.146197 0.165521 0.157621 0.160571 0.185480 0.192256 0.213060 0.193929 0.216686 0.239820 0.230765 0.214031 0.220192 0.247783 0.213839 0.230054 0.326495 0.267263 0.274234  
3484.0 0.145188 0.164366 0.156577 0.159538 0.184172 0.190973 0.211544 0.192702 0.215283 0.238119 0.229258 0.212779 0.218931 0.246262 0.212886 0.228992 0.324038 0.265765 0.272765  
3486.0 0.144186 0.163220 0.155541 0.158513 0.182873 0.189700 0.210040 0.191485 0.213892 0.236432 0.227762 0.211536 0.217679 0.244753 0.211938 0.227938 0.321601 0.264278 0.271307  
3488.0 0.143193 0.162082 0.154514 0.157496 0.181585 0.188437 0.208549 0.190276 0.212511 0.234759 0.226278 0.210303 0.216436 0.243254 0.210997 0.226890 0.319184 0.262801 0.269859  
3490.0 0.142208 0.160954 0.153494 0.156487 0.180308 0.187183 0.207069 0.189078 0.211140 0.233099 0.224806 0.209080 0.215202 0.241767 0.210060 0.225849 0.316787 0.261335 0.268421  
3492.0 0.141230 0.159835 0.152482 0.155486 0.179040 0.185939 0.205601 0.187888 0.209780 0.231453 0.223345 0.207866 0.213977 0.240291 0.209130 0.224814 0.314409 0.259879 0.266994  
3494.0 0.140260 0.158725 0.151479 0.154493 0.177783 0.184705 0.204144 0.186708 0.208430 0.229821 0.221896 0.206661 0.212761 0.238826 0.208205 0.223787 0.312051 0.258434 0.265577  
3496.0 0.139299 0.157623 0.150483 0.153508 0.176537 0.183480 0.202700 0.185537 0.207090 0.228202 0.220457 0.205465 0.211554 0.237372 0.207285 0.222765 0.309712 0.256998 0.264170  
3498.0 0.138345 0.156530 0.149495 0.152531 0.175300 0.182265 0.201266 0.184375 0.205761 0.226596 0.219030 0.204279 0.210355 0.235929 0.206371 0.221751 0.307392 0.255573 0.262773  
3500.0 0.137399 0.155446 0.148515 0.151561 0.174073 0.181059 0.199845 0.183222 0.204442 0.225004 0.217615 0.203101 0.209166 0.234497 0.205463 0.220743 0.305092 0.254158 0.261387  
3502.0 0.136460 0.154371 0.147542 0.150599 0.172857 0.179862 0.198434 0.182078 0.203133 0.223425 0.216210 0.201933 0.207985 0.233076 0.204560 0.219742 0.302811 0.252753 0.260010  
3504.0 0.135530 0.153304 0.146577 0.149645 0.171650 0.178675 0.197035 0.180943 0.201834 0.221859 0.214816 0.200774 0.206812 0.231666 0.203662 0.218747 0.300548 0.251358 0.258644  
3506.0 0.134607 0.152246 0.145620 0.148698 0.170454 0.177498 0.195648 0.179817 0.200545 0.220306 0.213434 0.199624 0.205648 0.230267 0.202770 0.217758 0.298305 0.249973 0.257287  
3508.0 0.133691 0.151197 0.144671 0.147759 0.169267 0.176329 0.194272 0.178700 0.199266 0.218766 0.212062 0.198483 0.204493 0.228878 0.201883 0.216776 0.296080 0.248597 0.255940  
3510.0 0.132783 0.150156 0.143729 0.146828 0.168090 0.175170 0.192907 0.177591 0.197997 0.217239 0.210702 0.197351 0.203346 0.227500 0.201002 0.215801 0.293873 0.247232 0.254604  
3512.0 0.131883 0.149123 0.142794 0.145904 0.166922 0.174019 0.191553 0.176492 0.196737 0.215725 0.209352 0.196228 0.202208 0.226133 0.200126 0.214832 0.291686 0.245877 0.253277  
3514.0 0.130990 0.148099 0.141867 0.144987 0.165765 0.172878 0.190210 0.175401 0.195488 0.214224 0.208013 0.195113 0.201078 0.224776 0.199255 0.213869 0.289516 0.244531 0.251959  
3516.0 0.130104 0.147083 0.140948 0.144078 0.164617 0.171746 0.188878 0.174319 0.194248 0.212735 0.206684 0.194008 0.199957 0.223429 0.198389 0.212913 0.287365 0.243195 0.250652  
3518.0 0.129226 0.146076 0.140036 0.143176 0.163479 0.170623 0.187557 0.173246 0.193018 0.211259 0.205366 0.192911 0.198844 0.222093 0.197529 0.211962 0.285232 0.241869 0.249354  
3520.0 0.128356 0.145076 0.139131 0.142282 0.162350 0.169509 0.186247 0.172181 0.191798 0.209795 0.204059 0.191822 0.197739 0.220768 0.196675 0.211019 0.283118 0.240552 0.248066  
3522.0 0.127492 0.144085 0.138234 0.141395 0.161230 0.168404 0.184947 0.171125 0.190587 0.208344 0.202762 0.190743 0.196643 0.219453 0.195825 0.210081 0.281021 0.239245 0.246787  
3524.0 0.126636 0.143103 0.137344 0.140515 0.160120 0.167307 0.183659 0.170077 0.189386 0.206906 0.201476 0.189672 0.195555 0.218148 0.194981 0.209150 0.278942 0.237948 0.245518  
3526.0 0.125787 0.142128 0.136461 0.139642 0.159020 0.166220 0.182381 0.169038 0.188194 0.205479 0.200200 0.188609 0.194475 0.216853 0.194142 0.208225 0.276881 0.236660 0.244258  
3528.0 0.124945 0.141161 0.135585 0.138777 0.157929 0.165141 0.181114 0.168007 0.187012 0.204065 0.198935 0.187555 0.193403 0.215569 0.193308 0.207306 0.274837 0.235381 0.243008  
3530.0 0.124110 0.140202 0.134717 0.137919 0.156846 0.164071 0.179857 0.166984 0.185839 0.202664 0.197680 0.186509 0.192339 0.214294 0.192479 0.206393 0.272812 0.234112 0.241767  
3532.0 0.123282 0.139252 0.133855 0.137067 0.155774 0.163009 0.178611 0.165970 0.184676 0.201274 0.196435 0.185472 0.191283 0.213030 0.191656 0.205486 0.270803 0.232852 0.240536  
3534.0 0.122462 0.138309 0.133001 0.136223 0.154710 0.161956 0.177375 0.164964 0.183521 0.199896 0.195200 0.184443 0.190236 0.211775 0.190837 0.204586 0.268812 0.231602 0.239313  
3536.0 0.121648 0.137374 0.132154 0.135386 0.153655 0.160912 0.176150 0.163966 0.182376 0.198530 0.193976 0.183423 0.189196 0.210531 0.190024 0.203691 0.266839 0.230360 0.238100  
3538.0 0.120841 0.136447 0.131313 0.134556 0.152610 0.159876 0.174935 0.162977 0.181240 0.197176 0.192761 0.182410 0.188164 0.209296 0.189216 0.202803 0.264882 0.229129 0.236897  
3540.0 0.120042 0.135528 0.130480 0.133733 0.151573 0.158849 0.173731 0.161995 0.180114 0.195834 0.191557 0.181406 0.187140 0.208071 0.188412 0.201920 0.262943 0.227906 0.235702  
3542.0 0.119249 0.134616 0.129654 0.132916 0.150546 0.157830 0.172536 0.161022 0.178996 0.194504 0.190362 0.180410 0.186124 0.206857 0.187614 0.201044 0.261020 0.226692 0.234516  
3544.0 0.118463 0.133713 0.128834 0.132107 0.149527 0.156819 0.171352 0.160056 0.177887 0.193185 0.189178 0.179422 0.185116 0.205651 0.186821 0.200173 0.259114 0.225487 0.233339  
3546.0 0.117683 0.132817 0.128022 0.131304 0.148517 0.155817 0.170178 0.159099 0.176788 0.191878 0.188003 0.178443 0.184116 0.204456 0.186033 0.199308 0.257226 0.224292 0.232172  
3548.0 0.116911 0.131928 0.127216 0.130508 0.147516 0.154823 0.169013 0.158149 0.175697 0.190583 0.186838 0.177471 0.183123 0.203270 0.185250 0.198450 0.255353 0.223105 0.231013  
3550.0 0.116145 0.131047 0.126417 0.129719 0.146523 0.153837 0.167859 0.157208 0.174615 0.189299 0.185682 0.176507 0.182138 0.202093 0.184472 0.197597 0.253498 0.221928 0.229863  
3552.0 0.115386 0.130174 0.125624 0.128936 0.145539 0.152859 0.166715 0.156274 0.173542 0.188026 0.184537 0.175551 0.181160 0.200926 0.183699 0.196750 0.251659 0.220759 0.228722  
3554.0 0.114633 0.129308 0.124839 0.128160 0.144564 0.151890 0.165580 0.155348 0.172478 0.186765 0.183401 0.174603 0.180190 0.199769 0.182931 0.195908 0.249836 0.219599 0.227590  
3556.0 0.113887 0.128449 0.124060 0.127391 0.143598 0.150928 0.164456 0.154430 0.171423 0.185515 0.182274 0.173663 0.179228 0.198621 0.182168 0.195073 0.248029 0.218448 0.226467  
3558.0 0.113148 0.127598 0.123287 0.126628 0.142639 0.149975 0.163341 0.153520 0.170376 0.184276 0.181157 0.172731 0.178273 0.197482 0.181409 0.194243 0.246239 0.217306 0.225352  
3560.0 0.112415 0.126755 0.122521 0.125872 0.141690 0.149030 0.162236 0.152617 0.169338 0.183049 0.180050 0.171806 0.177326 0.196353 0.180656 0.193419 0.244465 0.216172 0.224246  
3562.0 0.111688 0.125918 0.121762 0.125123 0.140749 0.148092 0.161140 0.151722 0.168308 0.181832 0.178952 0.170889 0.176386 0.195233 0.179907 0.192601 0.242706 0.215047 0.223149  
3564.0 0.110968 0.125089 0.121009 0.124379 0.139816 0.147163 0.160054 0.150834 0.167287 0.180626 0.177863 0.169980 0.175454 0.194122 0.179163 0.191788 0.240964 0.213931 0.222060  
3566.0 0.110254 0.124267 0.120263 0.123642 0.138891 0.146241 0.158977 0.149954 0.166274 0.179432 0.176784 0.169079 0.174529 0.193020 0.178424 0.190982 0.239238 0.212823 0.220980  
3568.0 0.109547 0.123452 0.119523 0.122912 0.137975 0.145327 0.157910 0.149081 0.165270 0.178248 0.175713 0.168185 0.173611 0.191927 0.177690 0.190180 0.237527 0.211724 0.219908  
3570.0 0.108846 0.122645 0.118789 0.122188 0.137067 0.144421 0.156853 0.148216 0.164274 0.177075 0.174652 0.167298 0.172700 0.190843 0.176961 0.189385 0.235831 0.210634 0.218844  
3572.0 0.108151 0.121844 0.118062 0.121470 0.136167 0.143522 0.155804 0.147358 0.163287 0.175913 0.173600 0.166419 0.171797 0.189769 0.176236 0.188594 0.234152 0.209551 0.217789  
3574.0 0.107463 0.121051 0.117341 0.120758 0.135275 0.142632 0.154765 0.146508 0.162308 0.174761 0.172558 0.165548 0.170901 0.188703 0.175516 0.187810 0.232487 0.208478 0.216743  
3576.0 0.106781 0.120264 0.116626 0.120053 0.134391 0.141749 0.153735 0.145665 0.161337 0.173620 0.171524 0.164683 0.170012 0.187646 0.174801 0.187031 0.230838 0.207412 0.215704  
3578.0 0.106104 0.119485 0.115917 0.119354 0.133515 0.140873 0.152715 0.144829 0.160374 0.172489 0.170499 0.163827 0.169131 0.186598 0.174091 0.186257 0.229204 0.206355 0.214674  
3580.0 0.105434 0.118712 0.115215 0.118661 0.132647 0.140005 0.151703 0.144001 0.159420 0.171369 0.169483 0.162977 0.168256 0.185559 0.173385 0.185489 0.227586 0.205306 0.213652  
3582.0 0.104770 0.117946 0.114519 0.117974 0.131787 0.139144 0.150701 0.143179 0.158473 0.170259 0.168476 0.162135 0.167388 0.184528 0.172684 0.184726 0.225982 0.204266 0.212639  
3584.0 0.104112 0.117187 0.113829 0.117293 0.130935 0.138291 0.149707 0.142365 0.157535 0.169160 0.167477 0.161300 0.166528 0.183506 0.171987 0.183969 0.224393 0.203233 0.211633  
3586.0 0.103460 0.116435 0.113145 0.116619 0.130091 0.137446 0.148723 0.141558 0.156605 0.168071 0.166488 0.160472 0.165674 0.182493 0.171295 0.183217 0.222819 0.202209 0.210636  
3588.0 0.102814 0.115690 0.112467 0.115950 0.129255 0.136607 0.147747 0.140758 0.155682 0.166992 0.165507 0.159652 0.164827 0.181488 0.170608 0.182471 0.221260 0.201193 0.209646  
3590.0 0.102174 0.114951 0.111795 0.115287 0.128426 0.135776 0.146780 0.139964 0.154768 0.165923 0.164535 0.158838 0.163987 0.180492 0.169925 0.181729 0.219716 0.200185 0.208665  
3592.0 0.101540 0.114219 0.111129 0.114630 0.127605 0.134953 0.145822 0.139178 0.153861 0.164865 0.163571 0.158032 0.163154 0.179505 0.169247 0.180993 0.218186 0.199185 0.207691  
3594.0 0.100911 0.113494 0.110469 0.113979 0.126791 0.134136 0.144873 0.138399 0.152963 0.163816 0.162616 0.157232 0.162328 0.178526 0.168573 0.180263 0.216670 0.198193 0.206725  
3596.0 0.100289 0.112775 0.109814 0.113334 0.125985 0.133327 0.143932 0.137627 0.152072 0.162777 0.161670 0.156440 0.161509 0.177555 0.167904 0.179537 0.215169 0.197209 0.205768  
3598.0 0.099672 0.112063 0.109166 0.112695 0.125187 0.132525 0.143000 0.136861 0.151188 0.161748 0.160732 0.155654 0.160696 0.176592 0.167240 0.178817 0.213683 0.196233 0.204818  
3600.0 0.099061 0.111357 0.108524 0.112061 0.124396 0.131729 0.142077 0.136103 0.150313 0.160729 0.159802 0.154875 0.159890 0.175638 0.166580 0.178102 0.212210 0.195265 0.203875  
3602.0 0.098456 0.110658 0.107887 0.111433 0.123612 0.130941 0.141162 0.135351 0.149445 0.159720 0.158880 0.154104 0.159090 0.174692 0.165924 0.177393 0.210752 0.194304 0.202941  
3604.0 0.097856 0.109965 0.107256 0.110811 0.122836 0.130160 0.140256 0.134605 0.148584 0.158720 0.157967 0.153339 0.158298 0.173754 0.165273 0.176688 0.209307 0.193351 0.202014  
3606.0 0.097262 0.109278 0.106631 0.110195 0.122067 0.129386 0.139358 0.133867 0.147732 0.157730 0.157062 0.152580 0.157512 0.172825 0.164626 0.175989 0.207877 0.192406 0.201095  
3608.0 0.096673 0.108598 0.106011 0.109584 0.121306 0.128619 0.138468 0.133135 0.146886 0.156750 0.156166 0.151829 0.156732 0.171903 0.163984 0.175294 0.206460 0.191469 0.200183  
3610.0 0.096090 0.107925 0.105397 0.108979 0.120552 0.127859 0.137587 0.132410 0.146048 0.155779 0.155277 0.151084 0.155959 0.170990 0.163346 0.174605 0.205058 0.190539 0.199280  
3612.0 0.095513 0.107257 0.104789 0.108379 0.119805 0.127106 0.136714 0.131691 0.145218 0.154817 0.154397 0.150346 0.155192 0.170084 0.162712 0.173921 0.203668 0.189617 0.198383  
3614.0 0.094941 0.106596 0.104186 0.107785 0.119065 0.126359 0.135849 0.130979 0.144395 0.153865 0.153524 0.149614 0.154432 0.169186 0.162083 0.173242 0.202293 0.188703 0.197494  
3616.0 0.094374 0.105940 0.103589 0.107196 0.118332 0.125619 0.134992 0.130273 0.143579 0.152922 0.152660 0.148889 0.153678 0.168297 0.161458 0.172567 0.200931 0.187796 0.196612  
3618.0 0.093813 0.105291 0.102997 0.106613 0.117606 0.124886 0.134143 0.129573 0.142771 0.151989 0.151803 0.148171 0.152931 0.167415 0.160837 0.171898 0.199582 0.186896 0.195738  
3620.0 0.093257 0.104649 0.102411 0.106035 0.116887 0.124160 0.133303 0.128881 0.141970 0.151064 0.150955 0.147459 0.152190 0.166541 0.160221 0.171234 0.198247 0.186004 0.194871  
3622.0 0.092707 0.104012 0.101830 0.105463 0.116175 0.123440 0.132470 0.128194 0.141176 0.150149 0.150114 0.146753 0.151455 0.165675 0.159609 0.170574 0.196925 0.185120 0.194012  
3624.0 0.092162 0.103381 0.101254 0.104896 0.115470 0.122727 0.131645 0.127514 0.140389 0.149243 0.149281 0.146054 0.150726 0.164816 0.159001 0.169920 0.195616 0.184242 0.193160  
3626.0 0.091622 0.102756 0.100684 0.104334 0.114772 0.122020 0.130828 0.126840 0.139609 0.148346 0.148456 0.145361 0.150004 0.163965 0.158398 0.169270 0.194320 0.183372 0.192315  
3628.0 0.091087 0.102137 0.100119 0.103778 0.114081 0.121320 0.130019 0.126172 0.138836 0.147457 0.147638 0.144675 0.149288 0.163122 0.157798 0.168626 0.193037 0.182510 0.191477  
3630.0 0.090558 0.101524 0.099560 0.103227 0.113397 0.120626 0.129218 0.125510 0.138071 0.146578 0.146828 0.143995 0.148578 0.162286 0.157203 0.167986 0.191767 0.181654 0.190646  
3632.0 0.090033 0.100917 0.099006 0.102681 0.112719 0.119939 0.128425 0.124855 0.137312 0.145708 0.146026 0.143321 0.147874 0.161458 0.156612 0.167351 0.190510 0.180806 0.189823  
3634.0 0.089514 0.100316 0.098457 0.102140 0.112048 0.119258 0.127639 0.124205 0.136560 0.144846 0.145231 0.142653 0.147176 0.160637 0.156026 0.166720 0.189265 0.179965 0.189006  
3636.0 0.089000 0.099720 0.097913 0.101605 0.111383 0.118584 0.126861 0.123562 0.135815 0.143993 0.144444 0.141992 0.146484 0.159824 0.155443 0.166095 0.188033 0.179131 0.188196  
3638.0 0.088491 0.099131 0.097374 0.101074 0.110726 0.117915 0.126090 0.122925 0.135077 0.143148 0.143664 0.141336 0.145799 0.159018 0.154864 0.165474 0.186814 0.178304 0.187394  
3640.0 0.087987 0.098547 0.096841 0.100549 0.110074 0.117254 0.125327 0.122294 0.134346 0.142313 0.142892 0.140687 0.145119 0.158220 0.154290 0.164858 0.185607 0.177484 0.186598  
3642.0 0.087488 0.097968 0.096312 0.100029 0.109430 0.116598 0.124572 0.121668 0.133621 0.141485 0.142127 0.140043 0.144445 0.157428 0.153720 0.164247 0.184413 0.176672 0.185810  
3644.0 0.086994 0.097396 0.095789 0.099513 0.108791 0.115948 0.123824 0.121049 0.132904 0.140667 0.141369 0.139406 0.143777 0.156644 0.153154 0.163640 0.183231 0.175866 0.185028  
3646.0 0.086504 0.096828 0.095270 0.099003 0.108159 0.115305 0.123083 0.120436 0.132193 0.139856 0.140619 0.138775 0.143115 0.155868 0.152592 0.163038 0.182061 0.175067 0.184253  
3648.0 0.086020 0.096267 0.094757 0.098498 0.107534 0.114668 0.122350 0.119828 0.131488 0.139054 0.139875 0.138150 0.142458 0.155098 0.152033 0.162440 0.180903 0.174275 0.183484  
3650.0 0.085541 0.095711 0.094249 0.097997 0.106915 0.114037 0.121624 0.119226 0.130790 0.138261 0.139139 0.137530 0.141808 0.154335 0.151479 0.161847 0.179758 0.173490 0.182723  
3652.0 0.085066 0.095161 0.093745 0.097502 0.106302 0.113411 0.120905 0.118630 0.130099 0.137475 0.138410 0.136917 0.141163 0.153580 0.150929 0.161259 0.178624 0.172711 0.181968  
3654.0 0.084596 0.094615 0.093247 0.097011 0.105695 0.112792 0.120193 0.118040 0.129414 0.136698 0.137688 0.136309 0.140524 0.152832 0.150383 0.160675 0.177502 0.171940 0.181220  
3656.0 0.084131 0.094076 0.092753 0.096525 0.105095 0.112179 0.119489 0.117455 0.128736 0.135929 0.136973 0.135707 0.139891 0.152090 0.149841 0.160096 0.176392 0.171175 0.180478  
3658.0 0.083671 0.093542 0.092264 0.096044 0.104501 0.111572 0.118791 0.116876 0.128064 0.135168 0.136266 0.135111 0.139263 0.151356 0.149303 0.159521 0.175294 0.170417 0.179743  
3660.0 0.083215 0.093013 0.091780 0.095567 0.103913 0.110971 0.118101 0.116303 0.127399 0.134415 0.135565 0.134520 0.138641 0.150628 0.148769 0.158951 0.174207 0.169665 0.179015  
3662.0 0.082764 0.092489 0.091301 0.095096 0.103331 0.110375 0.117418 0.115735 0.126739 0.133670 0.134871 0.133935 0.138024 0.149907 0.148238 0.158385 0.173132 0.168920 0.178293  
3664.0 0.082317 0.091971 0.090826 0.094629 0.102755 0.109785 0.116741 0.115173 0.126087 0.132933 0.134183 0.133356 0.137413 0.149193 0.147712 0.157823 0.172069 0.168182 0.177577  
3666.0 0.081875 0.091458 0.090356 0.094167 0.102185 0.109201 0.116072 0.114616 0.125440 0.132203 0.133503 0.132782 0.136808 0.148486 0.147189 0.157266 0.171017 0.167450 0.176868  
3668.0 0.081438 0.090950 0.089891 0.093709 0.101621 0.108623 0.115409 0.114065 0.124800 0.131482 0.132829 0.132214 0.136208 0.147786 0.146671 0.156714 0.169976 0.166725 0.176166  
3670.0 0.081005 0.090447 0.089430 0.093256 0.101063 0.108050 0.114753 0.113519 0.124165 0.130768 0.132162 0.131652 0.135613 0.147092 0.146156 0.156165 0.168946 0.166006 0.175469  
3672.0 0.080577 0.089950 0.088974 0.092807 0.100511 0.107484 0.114104 0.112978 0.123537 0.130062 0.131502 0.131095 0.135024 0.146405 0.145645 0.155621 0.167928 0.165294 0.174779  
3674.0 0.080153 0.089457 0.088523 0.092363 0.099964 0.106922 0.113462 0.112443 0.122915 0.129364 0.130848 0.130543 0.134441 0.145724 0.145138 0.155082 0.166921 0.164588 0.174096  
3676.0 0.079734 0.088970 0.088076 0.091924 0.099424 0.106367 0.112826 0.111914 0.122300 0.128673 0.130201 0.129997 0.133862 0.145050 0.144634 0.154546 0.165924 0.163888 0.173418  
3678.0 0.079318 0.088488 0.087634 0.091489 0.098889 0.105816 0.112197 0.111389 0.121690 0.127990 0.129561 0.129456 0.133289 0.144383 0.144134 0.154015 0.164939 0.163195 0.172747  
3680.0 0.078908 0.088010 0.087196 0.091058 0.098360 0.105272 0.111575 0.110870 0.121086 0.127314 0.128927 0.128921 0.132721 0.143721 0.143639 0.153488 0.163965 0.162508 0.172082  
3682.0 0.078501 0.087538 0.086763 0.090632 0.097836 0.104733 0.110959 0.110356 0.120488 0.126645 0.128299 0.128391 0.132159 0.143067 0.143146 0.152965 0.163001 0.161827 0.171423  
