# Based on deg 6 polynomial fit to  "empty" Random 3.5" apertures with shot variable g limit 
# Scaled (1.2x) s|t the 3.5" radius aperture model at 1.7" seeing is g = 25.8
# 'Empty' defined as mean IFU depth from ELiXer.
# Model from biweight stack of "empty" apertures from shots from 2020.
# WAVE 1.2      1.3      1.4      1.5      1.6      1.7      1.8      1.9      2.0      2.1      2.2      2.3      2.4      2.5      2.6      2.7      2.8      2.9      3.0
3470.0 0.031223 0.022606 0.022916 0.022658 0.023621 0.023723 0.023899 0.022977 0.023416 0.023247 0.021613 0.021574 0.020323 0.020542 0.019272 0.019093 0.020102 0.019016 0.021165
3472.0 0.030882 0.022443 0.022748 0.022485 0.023442 0.023548 0.023719 0.022810 0.023240 0.023066 0.021470 0.021421 0.020187 0.020410 0.019125 0.018969 0.019957 0.018905 0.021028
3474.0 0.030545 0.022281 0.022581 0.022313 0.023264 0.023374 0.023541 0.022644 0.023065 0.022887 0.021328 0.021269 0.020052 0.020279 0.018980 0.018846 0.019813 0.018794 0.020892
3476.0 0.030212 0.022120 0.022415 0.022143 0.023087 0.023202 0.023364 0.022480 0.022891 0.022709 0.021187 0.021118 0.019917 0.020148 0.018836 0.018723 0.019671 0.018683 0.020757
3478.0 0.029882 0.021960 0.022250 0.021974 0.022912 0.023031 0.023189 0.022317 0.022719 0.022532 0.021047 0.020968 0.019784 0.020019 0.018692 0.018601 0.019529 0.018573 0.020622
3480.0 0.029556 0.021802 0.022087 0.021807 0.022738 0.022861 0.023014 0.022155 0.022548 0.022357 0.020907 0.020820 0.019651 0.019890 0.018550 0.018480 0.019388 0.018463 0.020488
3482.0 0.029233 0.021644 0.021924 0.021640 0.022565 0.022693 0.022841 0.021994 0.022379 0.022183 0.020768 0.020672 0.019519 0.019761 0.018409 0.018359 0.019248 0.018353 0.020355
3484.0 0.028914 0.021488 0.021763 0.021475 0.022394 0.022525 0.022669 0.021834 0.022210 0.022010 0.020630 0.020525 0.019388 0.019633 0.018268 0.018239 0.019109 0.018244 0.020222
3486.0 0.028599 0.021332 0.021602 0.021311 0.022224 0.022359 0.022499 0.021675 0.022043 0.021839 0.020493 0.020379 0.019258 0.019506 0.018129 0.018120 0.018971 0.018134 0.020090
3488.0 0.028287 0.021178 0.021443 0.021149 0.022055 0.022194 0.022330 0.021518 0.021877 0.021669 0.020357 0.020234 0.019128 0.019380 0.017991 0.018001 0.018834 0.018026 0.019959
3490.0 0.027978 0.021024 0.021285 0.020987 0.021888 0.022031 0.022162 0.021361 0.021713 0.021500 0.020221 0.020090 0.018999 0.019254 0.017854 0.017884 0.018697 0.017917 0.019828
3492.0 0.027673 0.020872 0.021128 0.020828 0.021722 0.021868 0.021995 0.021206 0.021549 0.021333 0.020086 0.019947 0.018871 0.019129 0.017718 0.017766 0.018562 0.017809 0.019698
3494.0 0.027372 0.020721 0.020972 0.020668 0.021556 0.021706 0.021828 0.021051 0.021385 0.021165 0.019951 0.019804 0.018743 0.019003 0.017582 0.017648 0.018426 0.017700 0.019568
3496.0 0.027074 0.020571 0.020817 0.020510 0.021392 0.021545 0.021663 0.020896 0.021223 0.020999 0.019816 0.019661 0.018615 0.018878 0.017446 0.017531 0.018291 0.017592 0.019438
3498.0 0.026780 0.020422 0.020664 0.020354 0.021229 0.021385 0.021499 0.020743 0.021062 0.020834 0.019682 0.019520 0.018487 0.018753 0.017312 0.017414 0.018157 0.017483 0.019308
3500.0 0.026488 0.020274 0.020511 0.020198 0.021067 0.021227 0.021336 0.020591 0.020902 0.020670 0.019549 0.019379 0.018361 0.018629 0.017179 0.017299 0.018024 0.017376 0.019180
3502.0 0.026200 0.020127 0.020360 0.020044 0.020906 0.021070 0.021174 0.020440 0.020743 0.020507 0.019417 0.019240 0.018235 0.018506 0.017046 0.017183 0.017892 0.017268 0.019052
3504.0 0.025916 0.019981 0.020209 0.019891 0.020747 0.020914 0.021013 0.020290 0.020586 0.020346 0.019285 0.019101 0.018110 0.018384 0.016915 0.017069 0.017761 0.017161 0.018925
3506.0 0.025634 0.019835 0.020060 0.019740 0.020589 0.020759 0.020854 0.020142 0.020429 0.020187 0.019155 0.018964 0.017986 0.018262 0.016785 0.016955 0.017631 0.017054 0.018798
3508.0 0.025354 0.019691 0.019911 0.019589 0.020432 0.020605 0.020696 0.019994 0.020274 0.020028 0.019025 0.018828 0.017863 0.018141 0.016656 0.016842 0.017501 0.016948 0.018672
3510.0 0.025078 0.019547 0.019763 0.019440 0.020277 0.020452 0.020539 0.019848 0.020121 0.019871 0.018896 0.018692 0.017741 0.018021 0.016528 0.016729 0.017373 0.016842 0.018547
3512.0 0.024805 0.019405 0.019617 0.019291 0.020122 0.020301 0.020384 0.019703 0.019968 0.019715 0.018768 0.018558 0.017619 0.017901 0.016401 0.016617 0.017245 0.016736 0.018422
3514.0 0.024535 0.019264 0.019472 0.019144 0.019969 0.020151 0.020229 0.019559 0.019817 0.019560 0.018640 0.018424 0.017498 0.017782 0.016275 0.016506 0.017119 0.016631 0.018299
3516.0 0.024269 0.019123 0.019327 0.018999 0.019817 0.020002 0.020076 0.019416 0.019667 0.019407 0.018514 0.018291 0.017378 0.017664 0.016150 0.016396 0.016993 0.016526 0.018175
3518.0 0.024004 0.018983 0.019183 0.018853 0.019666 0.019853 0.019924 0.019273 0.019517 0.019254 0.018388 0.018159 0.017258 0.017546 0.016025 0.016286 0.016868 0.016421 0.018053
3520.0 0.023739 0.018842 0.019038 0.018707 0.019514 0.019704 0.019771 0.019130 0.019367 0.019102 0.018261 0.018028 0.017139 0.017428 0.015901 0.016176 0.016743 0.016317 0.017931
3522.0 0.023478 0.018701 0.018894 0.018562 0.019362 0.019555 0.019619 0.018989 0.019219 0.018950 0.018136 0.017897 0.017020 0.017311 0.015778 0.016067 0.016619 0.016213 0.017809
3524.0 0.023220 0.018562 0.018751 0.018418 0.019213 0.019408 0.019468 0.018848 0.019072 0.018800 0.018011 0.017767 0.016902 0.017195 0.015656 0.015959 0.016497 0.016109 0.017688
3526.0 0.022964 0.018423 0.018609 0.018275 0.019064 0.019263 0.019318 0.018708 0.018925 0.018651 0.017887 0.017638 0.016784 0.017079 0.015536 0.015851 0.016375 0.016006 0.017568
3528.0 0.022711 0.018286 0.018468 0.018134 0.018917 0.019118 0.019170 0.018569 0.018780 0.018504 0.017764 0.017509 0.016668 0.016964 0.015415 0.015744 0.016254 0.015903 0.017448
3530.0 0.022462 0.018149 0.018328 0.017993 0.018770 0.018974 0.019022 0.018432 0.018636 0.018357 0.017641 0.017382 0.016552 0.016849 0.015296 0.015637 0.016133 0.015800 0.017329
3532.0 0.022215 0.018014 0.018189 0.017854 0.018625 0.018832 0.018876 0.018295 0.018494 0.018212 0.017520 0.017256 0.016437 0.016736 0.015178 0.015531 0.016014 0.015698 0.017211
3534.0 0.021971 0.017879 0.018051 0.017716 0.018481 0.018690 0.018731 0.018160 0.018352 0.018068 0.017399 0.017131 0.016323 0.016623 0.015061 0.015426 0.015895 0.015596 0.017093
3536.0 0.021729 0.017746 0.017914 0.017579 0.018339 0.018550 0.018587 0.018026 0.018212 0.017925 0.017279 0.017006 0.016209 0.016510 0.014945 0.015322 0.015778 0.015495 0.016976
3538.0 0.021491 0.017613 0.017778 0.017443 0.018197 0.018411 0.018445 0.017892 0.018072 0.017783 0.017159 0.016883 0.016096 0.016398 0.014829 0.015218 0.015661 0.015394 0.016860
3540.0 0.021255 0.017481 0.017644 0.017308 0.018057 0.018273 0.018303 0.017760 0.017934 0.017643 0.017041 0.016760 0.015984 0.016287 0.014715 0.015114 0.015545 0.015293 0.016744
3542.0 0.021022 0.017351 0.017510 0.017175 0.017917 0.018136 0.018163 0.017629 0.017797 0.017503 0.016923 0.016638 0.015872 0.016177 0.014601 0.015012 0.015429 0.015193 0.016629
3544.0 0.020791 0.017221 0.017377 0.017042 0.017779 0.018000 0.018023 0.017498 0.017661 0.017365 0.016806 0.016517 0.015762 0.016067 0.014489 0.014910 0.015315 0.015093 0.016515
3546.0 0.020564 0.017092 0.017245 0.016910 0.017642 0.017865 0.017885 0.017369 0.017525 0.017228 0.016689 0.016397 0.015651 0.015958 0.014377 0.014808 0.015201 0.014994 0.016401
3548.0 0.020338 0.016964 0.017114 0.016780 0.017506 0.017731 0.017748 0.017240 0.017391 0.017091 0.016573 0.016278 0.015542 0.015849 0.014266 0.014707 0.015088 0.014894 0.016287
3550.0 0.020116 0.016836 0.016984 0.016650 0.017371 0.017598 0.017611 0.017113 0.017258 0.016956 0.016458 0.016159 0.015433 0.015741 0.014156 0.014607 0.014976 0.014796 0.016175
3552.0 0.019895 0.016710 0.016855 0.016522 0.017237 0.017467 0.017476 0.016987 0.017126 0.016822 0.016344 0.016041 0.015325 0.015633 0.014046 0.014507 0.014864 0.014697 0.016063
3554.0 0.019678 0.016585 0.016727 0.016395 0.017104 0.017336 0.017342 0.016861 0.016995 0.016689 0.016230 0.015925 0.015218 0.015526 0.013938 0.014408 0.014754 0.014599 0.015951
3556.0 0.019463 0.016460 0.016600 0.016269 0.016973 0.017206 0.017209 0.016737 0.016865 0.016558 0.016117 0.015809 0.015111 0.015420 0.013830 0.014309 0.014644 0.014502 0.015840
3558.0 0.019251 0.016338 0.016475 0.016144 0.016843 0.017078 0.017078 0.016614 0.016737 0.016428 0.016005 0.015694 0.015005 0.015315 0.013724 0.014211 0.014535 0.014405 0.015730
3560.0 0.019041 0.016216 0.016350 0.016021 0.016714 0.016951 0.016948 0.016492 0.016610 0.016298 0.015895 0.015580 0.014900 0.015210 0.013618 0.014114 0.014427 0.014308 0.015621
3562.0 0.018834 0.016094 0.016227 0.015898 0.016586 0.016825 0.016819 0.016371 0.016484 0.016170 0.015784 0.015467 0.014796 0.015106 0.013513 0.014018 0.014320 0.014212 0.015512
3564.0 0.018630 0.015974 0.016104 0.015777 0.016460 0.016700 0.016690 0.016251 0.016359 0.016043 0.015675 0.015355 0.014692 0.015003 0.013409 0.013922 0.014213 0.014116 0.015403
3566.0 0.018427 0.015855 0.015982 0.015657 0.016334 0.016577 0.016563 0.016132 0.016234 0.015918 0.015566 0.015244 0.014589 0.014900 0.013306 0.013826 0.014107 0.014021 0.015296
3568.0 0.018227 0.015736 0.015862 0.015537 0.016209 0.016454 0.016437 0.016013 0.016111 0.015793 0.015458 0.015133 0.014487 0.014798 0.013204 0.013732 0.014002 0.013926 0.015189
3570.0 0.018030 0.015619 0.015742 0.015419 0.016086 0.016332 0.016312 0.015896 0.015989 0.015669 0.015351 0.015024 0.014386 0.014696 0.013103 0.013638 0.013898 0.013831 0.015082
3572.0 0.017835 0.015502 0.015623 0.015301 0.015963 0.016211 0.016188 0.015780 0.015868 0.015546 0.015244 0.014915 0.014285 0.014596 0.013002 0.013544 0.013795 0.013737 0.014977
3574.0 0.017641 0.015386 0.015505 0.015185 0.015842 0.016091 0.016065 0.015665 0.015748 0.015425 0.015138 0.014807 0.014185 0.014495 0.012902 0.013451 0.013692 0.013643 0.014872
3576.0 0.017451 0.015271 0.015388 0.015070 0.015721 0.015972 0.015943 0.015550 0.015629 0.015304 0.015033 0.014700 0.014085 0.014396 0.012803 0.013359 0.013590 0.013550 0.014767
3578.0 0.017262 0.015157 0.015271 0.014955 0.015601 0.015854 0.015822 0.015437 0.015511 0.015184 0.014928 0.014593 0.013986 0.014297 0.012705 0.013267 0.013489 0.013457 0.014663
3580.0 0.017076 0.015043 0.015156 0.014842 0.015483 0.015737 0.015702 0.015324 0.015393 0.015066 0.014825 0.014488 0.013888 0.014198 0.012608 0.013176 0.013388 0.013365 0.014560
3582.0 0.016891 0.014931 0.015042 0.014729 0.015365 0.015621 0.015583 0.015212 0.015277 0.014948 0.014721 0.014383 0.013791 0.014101 0.012511 0.013086 0.013288 0.013273 0.014457
3584.0 0.016709 0.014819 0.014928 0.014618 0.015249 0.015505 0.015465 0.015101 0.015162 0.014831 0.014619 0.014279 0.013694 0.014003 0.012416 0.012996 0.013189 0.013181 0.014355
3586.0 0.016529 0.014708 0.014815 0.014507 0.015133 0.015391 0.015348 0.014991 0.015047 0.014716 0.014517 0.014176 0.013598 0.013907 0.012321 0.012906 0.013091 0.013090 0.014254
3588.0 0.016352 0.014598 0.014703 0.014397 0.015018 0.015278 0.015232 0.014882 0.014934 0.014601 0.014416 0.014073 0.013502 0.013811 0.012227 0.012818 0.012994 0.012999 0.014153
3590.0 0.016176 0.014488 0.014592 0.014288 0.014904 0.015165 0.015116 0.014774 0.014821 0.014487 0.014316 0.013971 0.013407 0.013716 0.012133 0.012730 0.012897 0.012909 0.014053
3592.0 0.016002 0.014380 0.014482 0.014180 0.014792 0.015054 0.015002 0.014667 0.014710 0.014374 0.014216 0.013870 0.013313 0.013621 0.012040 0.012642 0.012801 0.012819 0.013953
3594.0 0.015830 0.014272 0.014373 0.014073 0.014680 0.014943 0.014889 0.014560 0.014599 0.014263 0.014117 0.013770 0.013219 0.013527 0.011949 0.012555 0.012705 0.012729 0.013854
3596.0 0.015661 0.014165 0.014264 0.013967 0.014569 0.014833 0.014776 0.014454 0.014489 0.014152 0.014019 0.013671 0.013126 0.013433 0.011858 0.012468 0.012611 0.012640 0.013756
3598.0 0.015493 0.014059 0.014157 0.013862 0.014459 0.014725 0.014665 0.014350 0.014380 0.014042 0.013921 0.013572 0.013034 0.013340 0.011767 0.012382 0.012517 0.012552 0.013658
3600.0 0.015327 0.013953 0.014050 0.013758 0.014350 0.014617 0.014554 0.014246 0.014272 0.013933 0.013824 0.013474 0.012942 0.013248 0.011678 0.012297 0.012423 0.012464 0.013560
3602.0 0.015164 0.013848 0.013944 0.013654 0.014241 0.014510 0.014444 0.014142 0.014165 0.013825 0.013727 0.013377 0.012851 0.013156 0.011589 0.012212 0.012331 0.012376 0.013464
3604.0 0.015002 0.013745 0.013839 0.013551 0.014134 0.014403 0.014335 0.014040 0.014059 0.013718 0.013632 0.013281 0.012761 0.013065 0.011501 0.012128 0.012239 0.012288 0.013368
3606.0 0.014842 0.013641 0.013734 0.013450 0.014028 0.014298 0.014227 0.013939 0.013954 0.013611 0.013537 0.013185 0.012671 0.012974 0.011413 0.012044 0.012148 0.012202 0.013272
3608.0 0.014684 0.013539 0.013631 0.013349 0.013922 0.014193 0.014120 0.013838 0.013849 0.013506 0.013442 0.013090 0.012582 0.012884 0.011326 0.011961 0.012057 0.012115 0.013177
3610.0 0.014528 0.013437 0.013528 0.013249 0.013818 0.014090 0.014014 0.013738 0.013746 0.013402 0.013348 0.012996 0.012493 0.012794 0.011241 0.011879 0.011967 0.012029 0.013083
3612.0 0.014373 0.013337 0.013426 0.013150 0.013714 0.013987 0.013909 0.013639 0.013643 0.013298 0.013255 0.012902 0.012405 0.012706 0.011155 0.011797 0.011878 0.011943 0.012989
3614.0 0.014221 0.013236 0.013325 0.013051 0.013611 0.013885 0.013804 0.013541 0.013541 0.013196 0.013163 0.012809 0.012318 0.012617 0.011071 0.011715 0.011790 0.011858 0.012896
3616.0 0.014070 0.013137 0.013225 0.012954 0.013509 0.013784 0.013701 0.013443 0.013440 0.013094 0.013071 0.012717 0.012231 0.012529 0.010987 0.011634 0.011702 0.011773 0.012803
3618.0 0.013921 0.013038 0.013125 0.012857 0.013408 0.013684 0.013598 0.013346 0.013340 0.012993 0.012980 0.012626 0.012145 0.012442 0.010904 0.011554 0.011615 0.011689 0.012711
3620.0 0.013774 0.012941 0.013026 0.012761 0.013308 0.013584 0.013496 0.013250 0.013241 0.012893 0.012889 0.012535 0.012059 0.012356 0.010822 0.011474 0.011528 0.011605 0.012620
3622.0 0.013629 0.012843 0.012928 0.012666 0.013208 0.013486 0.013395 0.013155 0.013142 0.012794 0.012799 0.012445 0.011974 0.012270 0.010740 0.011395 0.011442 0.011522 0.012529
3624.0 0.013485 0.012747 0.012831 0.012572 0.013109 0.013388 0.013295 0.013061 0.013044 0.012696 0.012710 0.012356 0.011890 0.012184 0.010659 0.011316 0.011357 0.011439 0.012439
3626.0 0.013343 0.012651 0.012734 0.012479 0.013012 0.013291 0.013196 0.012967 0.012948 0.012598 0.012621 0.012267 0.011806 0.012099 0.010579 0.011238 0.011273 0.011356 0.012349
3628.0 0.013203 0.012556 0.012639 0.012386 0.012915 0.013195 0.013097 0.012875 0.012852 0.012502 0.012533 0.012179 0.011723 0.012015 0.010499 0.011160 0.011189 0.011274 0.012260
3630.0 0.013065 0.012462 0.012544 0.012294 0.012819 0.013099 0.012999 0.012782 0.012756 0.012406 0.012446 0.012092 0.011640 0.011931 0.010420 0.011083 0.011105 0.011192 0.012171
3632.0 0.012928 0.012368 0.012449 0.012203 0.012723 0.013005 0.012903 0.012691 0.012662 0.012311 0.012359 0.012006 0.011558 0.011848 0.010342 0.011007 0.011023 0.011111 0.012083
3634.0 0.012792 0.012275 0.012356 0.012113 0.012629 0.012911 0.012807 0.012601 0.012568 0.012217 0.012273 0.011920 0.011477 0.011765 0.010264 0.010931 0.010941 0.011030 0.011995
3636.0 0.012659 0.012183 0.012263 0.012023 0.012535 0.012818 0.012711 0.012511 0.012475 0.012124 0.012187 0.011835 0.011396 0.011683 0.010187 0.010855 0.010859 0.010950 0.011908
3638.0 0.012527 0.012092 0.012171 0.011935 0.012442 0.012725 0.012617 0.012422 0.012383 0.012031 0.012102 0.011750 0.011316 0.011601 0.010111 0.010780 0.010779 0.010870 0.011822
3640.0 0.012396 0.012001 0.012080 0.011847 0.012350 0.012634 0.012523 0.012333 0.012292 0.011940 0.012017 0.011666 0.011236 0.011520 0.010035 0.010706 0.010699 0.010790 0.011736
3642.0 0.012267 0.011911 0.011989 0.011759 0.012259 0.012543 0.012430 0.012245 0.012201 0.011849 0.011934 0.011583 0.011157 0.011440 0.009960 0.010632 0.010619 0.010711 0.011651
3644.0 0.012140 0.011821 0.011899 0.011673 0.012168 0.012453 0.012338 0.012159 0.012112 0.011759 0.011850 0.011500 0.011078 0.011360 0.009886 0.010558 0.010540 0.010632 0.011566
3646.0 0.012014 0.011732 0.011810 0.011587 0.012078 0.012364 0.012247 0.012072 0.012023 0.011669 0.011768 0.011418 0.011000 0.011280 0.009812 0.010485 0.010462 0.010554 0.011482
3648.0 0.011890 0.011644 0.011722 0.011502 0.011989 0.012275 0.012156 0.011987 0.011934 0.011581 0.011686 0.011337 0.010923 0.011201 0.009739 0.010413 0.010384 0.010476 0.011398
3650.0 0.011767 0.011557 0.011634 0.011418 0.011901 0.012187 0.012066 0.011902 0.011847 0.011493 0.011604 0.011257 0.010846 0.011123 0.009667 0.010341 0.010307 0.010399 0.011315
3652.0 0.011646 0.011470 0.011547 0.011335 0.011813 0.012100 0.011977 0.011818 0.011760 0.011406 0.011523 0.011176 0.010770 0.011045 0.009595 0.010269 0.010231 0.010322 0.011232
3654.0 0.011526 0.011384 0.011460 0.011252 0.011727 0.012014 0.011889 0.011734 0.011674 0.011320 0.011443 0.011097 0.010694 0.010968 0.009524 0.010198 0.010155 0.010245 0.011150
3656.0 0.011408 0.011299 0.011375 0.011170 0.011641 0.011929 0.011802 0.011652 0.011589 0.011235 0.011363 0.011018 0.010619 0.010891 0.009453 0.010128 0.010080 0.010169 0.011069
3658.0 0.011291 0.011214 0.011290 0.011088 0.011555 0.011844 0.011715 0.011570 0.011504 0.011150 0.011284 0.010940 0.010544 0.010815 0.009383 0.010058 0.010005 0.010093 0.010988
3660.0 0.011176 0.011130 0.011205 0.011008 0.011471 0.011759 0.011629 0.011488 0.011420 0.011066 0.011206 0.010863 0.010470 0.010739 0.009314 0.009988 0.009931 0.010018 0.010907
3662.0 0.011061 0.011046 0.011122 0.010928 0.011387 0.011676 0.011543 0.011408 0.011337 0.010983 0.011128 0.010786 0.010396 0.010664 0.009245 0.009919 0.009857 0.009943 0.010828
3664.0 0.010949 0.010963 0.011039 0.010848 0.011304 0.011593 0.011459 0.011328 0.011255 0.010901 0.011050 0.010710 0.010323 0.010589 0.009177 0.009851 0.009785 0.009869 0.010748
3666.0 0.010837 0.010881 0.010957 0.010770 0.011222 0.011511 0.011375 0.011248 0.011173 0.010819 0.010974 0.010634 0.010251 0.010515 0.009109 0.009783 0.009712 0.009795 0.010669
3668.0 0.010728 0.010799 0.010875 0.010692 0.011140 0.011430 0.011292 0.011170 0.011092 0.010738 0.010897 0.010559 0.010179 0.010441 0.009042 0.009715 0.009640 0.009721 0.010591
3670.0 0.010619 0.010718 0.010794 0.010615 0.011059 0.011349 0.011209 0.011092 0.011012 0.010658 0.010822 0.010484 0.010107 0.010368 0.008976 0.009648 0.009569 0.009648 0.010513
3672.0 0.010512 0.010638 0.010714 0.010538 0.010979 0.011269 0.011128 0.011014 0.010932 0.010578 0.010746 0.010410 0.010036 0.010295 0.008910 0.009582 0.009499 0.009576 0.010436
3674.0 0.010406 0.010558 0.010634 0.010462 0.010899 0.011190 0.011047 0.010938 0.010854 0.010499 0.010672 0.010337 0.009966 0.010223 0.008845 0.009516 0.009428 0.009503 0.010359
3676.0 0.010301 0.010479 0.010555 0.010387 0.010820 0.011111 0.010966 0.010861 0.010775 0.010421 0.010598 0.010265 0.009896 0.010151 0.008780 0.009450 0.009359 0.009431 0.010283
3678.0 0.010198 0.010400 0.010477 0.010313 0.010742 0.011033 0.010887 0.010786 0.010698 0.010344 0.010524 0.010192 0.009826 0.010080 0.008716 0.009385 0.009290 0.009360 0.010207
3680.0 0.010095 0.010322 0.010399 0.010239 0.010665 0.010956 0.010808 0.010711 0.010621 0.010267 0.010451 0.010121 0.009758 0.010010 0.008653 0.009320 0.009221 0.009289 0.010132
3682.0 0.009995 0.010245 0.010322 0.010165 0.010588 0.010880 0.010730 0.010637 0.010545 0.010191 0.010379 0.010050 0.009689 0.009940 0.008590 0.009256 0.009154 0.009218 0.010057
3684.0 0.009895 0.010168 0.010246 0.010093 0.010512 0.010804 0.010652 0.010564 0.010469 0.010116 0.010307 0.009980 0.009621 0.009870 0.008527 0.009193 0.009086 0.009148 0.009983
3686.0 0.009797 0.010092 0.010170 0.010021 0.010436 0.010728 0.010575 0.010491 0.010394 0.010041 0.010236 0.009910 0.009554 0.009801 0.008465 0.009129 0.009019 0.009079 0.009909
