#
# result??
#
# Based on deg 5 polynomial fit to  "empty" Random 3.5" apertures with fixed g > 24.3 limit
# Model from median stack of "empty" apertures from shots from 2020.
# Per Aperture flux densities as erg/s/cm2/AA e-17
# gmag 25.88    25.79    25.80    25.80    25.74    25.72    25.74    25.69    25.72    25.72    25.66    25.65    25.76    25.81    25.86    25.85    25.97    26.27    26.29
# WAVE 1.2      1.3      1.4      1.5      1.6      1.7      1.8      1.9      2.0      2.1      2.2      2.3      2.4      2.5      2.6      2.7      2.8      2.9      3.0
3470.0 0.116396 0.113804 0.123883 0.127432 0.140540 0.157039 0.158670 0.164141 0.177777 0.199775 0.179641 0.193739 0.202675 0.235875 0.202153 0.200135 0.246424 0.241446 0.254820
3472.0 0.115602 0.113118 0.123041 0.126558 0.139564 0.155894 0.157540 0.163002 0.176477 0.198204 0.178412 0.192338 0.201182 0.234027 0.200694 0.198713 0.244500 0.239512 0.252780
3474.0 0.114813 0.112437 0.122204 0.125691 0.138595 0.154758 0.156419 0.161871 0.175185 0.196645 0.177191 0.190947 0.199698 0.232191 0.199246 0.197302 0.242589 0.237591 0.250753
3476.0 0.114029 0.111759 0.121373 0.124829 0.137632 0.153629 0.155305 0.160746 0.173903 0.195097 0.175977 0.189565 0.198225 0.230369 0.197806 0.195899 0.240692 0.235684 0.248741
3478.0 0.113251 0.111086 0.120548 0.123973 0.136676 0.152508 0.154199 0.159630 0.172629 0.193561 0.174772 0.188193 0.196762 0.228560 0.196377 0.194505 0.238808 0.233790 0.246743
3480.0 0.112479 0.110416 0.119729 0.123123 0.135727 0.151396 0.153100 0.158520 0.171364 0.192035 0.173574 0.186830 0.195309 0.226763 0.194957 0.193121 0.236936 0.231909 0.244758
3482.0 0.111711 0.109751 0.118915 0.122279 0.134784 0.150291 0.152008 0.157418 0.170107 0.190521 0.172385 0.185477 0.193866 0.224978 0.193546 0.191746 0.235078 0.230042 0.242787
3484.0 0.110949 0.109090 0.118107 0.121440 0.133848 0.149194 0.150925 0.156324 0.168860 0.189018 0.171203 0.184133 0.192432 0.223206 0.192145 0.190380 0.233233 0.228188 0.240830
3486.0 0.110191 0.108433 0.117304 0.120608 0.132918 0.148104 0.149848 0.155237 0.167621 0.187525 0.170029 0.182799 0.191009 0.221447 0.190754 0.189022 0.231401 0.226346 0.238886
3488.0 0.109440 0.107780 0.116507 0.119781 0.131995 0.147023 0.148779 0.154157 0.166390 0.186044 0.168862 0.181474 0.189595 0.219700 0.189372 0.187674 0.229581 0.224518 0.236956
3490.0 0.108693 0.107131 0.115715 0.118960 0.131078 0.145949 0.147717 0.153084 0.165169 0.184574 0.167703 0.180158 0.188192 0.217965 0.187999 0.186334 0.227774 0.222703 0.235039
3492.0 0.107951 0.106485 0.114928 0.118145 0.130167 0.144883 0.146663 0.152018 0.163955 0.183114 0.166552 0.178851 0.186797 0.216243 0.186635 0.185004 0.225980 0.220900 0.233135
3494.0 0.107215 0.105844 0.114148 0.117335 0.129263 0.143824 0.145616 0.150960 0.162751 0.181665 0.165408 0.177554 0.185413 0.214533 0.185281 0.183682 0.224199 0.219111 0.231245
3496.0 0.106483 0.105207 0.113372 0.116531 0.128365 0.142773 0.144576 0.149909 0.161554 0.180227 0.164272 0.176265 0.184038 0.212835 0.183936 0.182369 0.222430 0.217334 0.229367
3498.0 0.105757 0.104574 0.112602 0.115732 0.127473 0.141729 0.143543 0.148865 0.160366 0.178799 0.163144 0.174986 0.182673 0.211148 0.182600 0.181065 0.220674 0.215569 0.227503
3500.0 0.105035 0.103944 0.111837 0.114940 0.126588 0.140693 0.142517 0.147828 0.159187 0.177382 0.162023 0.173716 0.181317 0.209474 0.181273 0.179769 0.218930 0.213818 0.225652
3502.0 0.104319 0.103319 0.111077 0.114152 0.125708 0.139665 0.141499 0.146798 0.158015 0.175976 0.160909 0.172455 0.179971 0.207812 0.179955 0.178482 0.217199 0.212078 0.223814
3504.0 0.103607 0.102697 0.110323 0.113370 0.124835 0.138644 0.140488 0.145775 0.156852 0.174580 0.159803 0.171202 0.178634 0.206162 0.178646 0.177203 0.215480 0.210352 0.221989
3506.0 0.102901 0.102080 0.109574 0.112594 0.123968 0.137630 0.139483 0.144759 0.155697 0.173194 0.158704 0.169959 0.177306 0.204524 0.177347 0.175934 0.213773 0.208637 0.220177
3508.0 0.102199 0.101466 0.108830 0.111823 0.123107 0.136623 0.138486 0.143750 0.154550 0.171819 0.157613 0.168725 0.175988 0.202897 0.176056 0.174672 0.212078 0.206935 0.218378
3510.0 0.101502 0.100856 0.108092 0.111058 0.122252 0.135624 0.137496 0.142747 0.153412 0.170454 0.156529 0.167499 0.174679 0.201282 0.174774 0.173419 0.210396 0.205246 0.216591
3512.0 0.100811 0.100249 0.107359 0.110298 0.121404 0.134632 0.136512 0.141752 0.152281 0.169099 0.155452 0.166282 0.173379 0.199679 0.173500 0.172175 0.208725 0.203568 0.214817
3514.0 0.100124 0.099647 0.106630 0.109543 0.120561 0.133648 0.135536 0.140763 0.151159 0.167754 0.154382 0.165073 0.172089 0.198087 0.172236 0.170938 0.207067 0.201903 0.213056
3516.0 0.099442 0.099048 0.105907 0.108794 0.119724 0.132670 0.134566 0.139781 0.150044 0.166420 0.153319 0.163874 0.170807 0.196507 0.170980 0.169711 0.205420 0.200249 0.211307
3518.0 0.098764 0.098453 0.105189 0.108050 0.118893 0.131700 0.133603 0.138806 0.148938 0.165095 0.152264 0.162683 0.169535 0.194938 0.169733 0.168491 0.203785 0.198608 0.209570
3520.0 0.098092 0.097862 0.104476 0.107311 0.118068 0.130737 0.132647 0.137838 0.147839 0.163781 0.151216 0.161500 0.168272 0.193381 0.168495 0.167280 0.202163 0.196979 0.207846
3522.0 0.097424 0.097275 0.103768 0.106578 0.117249 0.129781 0.131698 0.136876 0.146749 0.162477 0.150175 0.160326 0.167017 0.191835 0.167265 0.166077 0.200551 0.195361 0.206135
3524.0 0.096761 0.096691 0.103065 0.105850 0.116436 0.128832 0.130756 0.135921 0.145666 0.161182 0.149140 0.159160 0.165772 0.190300 0.166044 0.164882 0.198952 0.193755 0.204435
3526.0 0.096102 0.096111 0.102367 0.105127 0.115628 0.127889 0.129820 0.134973 0.144591 0.159897 0.148113 0.158003 0.164535 0.188777 0.164831 0.163695 0.197364 0.192161 0.202748
3528.0 0.095449 0.095534 0.101675 0.104409 0.114827 0.126954 0.128891 0.134031 0.143523 0.158623 0.147093 0.156854 0.163308 0.187264 0.163627 0.162516 0.195788 0.190579 0.201073
3530.0 0.094799 0.094962 0.100987 0.103697 0.114031 0.126026 0.127968 0.133096 0.142464 0.157357 0.146080 0.155714 0.162089 0.185763 0.162431 0.161345 0.194223 0.189008 0.199410
3532.0 0.094155 0.094392 0.100303 0.102989 0.113241 0.125105 0.127052 0.132167 0.141412 0.156102 0.145074 0.154582 0.160878 0.184272 0.161243 0.160183 0.192669 0.187449 0.197759
3534.0 0.093515 0.093827 0.099625 0.102287 0.112456 0.124190 0.126143 0.131245 0.140367 0.154856 0.144074 0.153458 0.159677 0.182793 0.160064 0.159028 0.191127 0.185901 0.196120
3536.0 0.092880 0.093265 0.098952 0.101589 0.111677 0.123282 0.125240 0.130329 0.139331 0.153620 0.143082 0.152342 0.158484 0.181325 0.158893 0.157881 0.189597 0.184365 0.194492
3538.0 0.092249 0.092706 0.098283 0.100897 0.110904 0.122381 0.124343 0.129419 0.138301 0.152393 0.142096 0.151234 0.157300 0.179867 0.157731 0.156742 0.188077 0.182840 0.192877
3540.0 0.091623 0.092152 0.097620 0.100210 0.110137 0.121487 0.123454 0.128516 0.137280 0.151176 0.141117 0.150135 0.156124 0.178420 0.156576 0.155611 0.186569 0.181326 0.191273
3542.0 0.091001 0.091600 0.096961 0.099528 0.109375 0.120599 0.122570 0.127619 0.136265 0.149968 0.140144 0.149043 0.154957 0.176984 0.155430 0.154487 0.185071 0.179824 0.189681
3544.0 0.090384 0.091053 0.096306 0.098850 0.108618 0.119718 0.121693 0.126729 0.135259 0.148769 0.139179 0.147960 0.153798 0.175559 0.154291 0.153372 0.183585 0.178333 0.188101
3546.0 0.089771 0.090508 0.095657 0.098178 0.107867 0.118844 0.120822 0.125845 0.134259 0.147580 0.138220 0.146884 0.152647 0.174144 0.153161 0.152264 0.182110 0.176852 0.186532
3548.0 0.089163 0.089968 0.095012 0.097511 0.107122 0.117976 0.119957 0.124967 0.133267 0.146400 0.137267 0.145817 0.151505 0.172739 0.152039 0.151164 0.180646 0.175383 0.184975
3550.0 0.088559 0.089430 0.094372 0.096848 0.106382 0.117115 0.119099 0.124095 0.132282 0.145229 0.136321 0.144757 0.150372 0.171346 0.150925 0.150071 0.179192 0.173925 0.183429
3552.0 0.087959 0.088897 0.093737 0.096190 0.105647 0.116261 0.118247 0.123229 0.131305 0.144068 0.135382 0.143705 0.149246 0.169962 0.149819 0.148986 0.177750 0.172478 0.181895
3554.0 0.087364 0.088366 0.093106 0.095537 0.104918 0.115412 0.117401 0.122370 0.130334 0.142915 0.134450 0.142661 0.148129 0.168589 0.148720 0.147908 0.176318 0.171042 0.180372
3556.0 0.086773 0.087839 0.092480 0.094889 0.104194 0.114571 0.116562 0.121517 0.129371 0.141771 0.133523 0.141625 0.147020 0.167227 0.147630 0.146838 0.174897 0.169616 0.178860
3558.0 0.086187 0.087316 0.091858 0.094246 0.103476 0.113735 0.115728 0.120669 0.128415 0.140637 0.132603 0.140596 0.145919 0.165874 0.146547 0.145776 0.173486 0.168201 0.177359
3560.0 0.085605 0.086796 0.091241 0.093607 0.102763 0.112906 0.114901 0.119828 0.127466 0.139511 0.131690 0.139575 0.144826 0.164532 0.145472 0.144721 0.172086 0.166797 0.175870
3562.0 0.085027 0.086279 0.090628 0.092973 0.102055 0.112084 0.114080 0.118993 0.126524 0.138395 0.130783 0.138562 0.143742 0.163200 0.144405 0.143673 0.170697 0.165404 0.174391
3564.0 0.084453 0.085766 0.090020 0.092344 0.101352 0.111267 0.113264 0.118164 0.125589 0.137287 0.129882 0.137556 0.142665 0.161878 0.143345 0.142633 0.169318 0.164021 0.172924
3566.0 0.083884 0.085255 0.089417 0.091720 0.100655 0.110457 0.112455 0.117341 0.124662 0.136188 0.128988 0.136558 0.141596 0.160566 0.142293 0.141599 0.167949 0.162648 0.171467
3568.0 0.083318 0.084749 0.088818 0.091100 0.099962 0.109653 0.111652 0.116523 0.123741 0.135097 0.128100 0.135567 0.140535 0.159264 0.141249 0.140574 0.166591 0.161286 0.170022
3570.0 0.082757 0.084245 0.088223 0.090485 0.099275 0.108855 0.110854 0.115712 0.122827 0.134015 0.127218 0.134584 0.139482 0.157972 0.140212 0.139555 0.165243 0.159934 0.168587
3572.0 0.082200 0.083745 0.087633 0.089874 0.098593 0.108064 0.110063 0.114906 0.121920 0.132942 0.126343 0.133608 0.138437 0.156690 0.139183 0.138544 0.163906 0.158593 0.167163
3574.0 0.081647 0.083248 0.087047 0.089268 0.097917 0.107278 0.109278 0.114106 0.121019 0.131878 0.125473 0.132639 0.137399 0.155418 0.138161 0.137539 0.162578 0.157262 0.165749
3576.0 0.081099 0.082755 0.086465 0.088666 0.097245 0.106499 0.108498 0.113312 0.120126 0.130822 0.124610 0.131678 0.136370 0.154155 0.137147 0.136542 0.161261 0.155941 0.164347
3578.0 0.080554 0.082264 0.085888 0.088069 0.096578 0.105726 0.107724 0.112524 0.119239 0.129774 0.123753 0.130724 0.135348 0.152902 0.136139 0.135552 0.159953 0.154630 0.162955
3580.0 0.080013 0.081777 0.085315 0.087477 0.095916 0.104958 0.106956 0.111742 0.118359 0.128735 0.122902 0.129777 0.134333 0.151659 0.135140 0.134569 0.158656 0.153330 0.161573
3582.0 0.079477 0.081293 0.084747 0.086889 0.095260 0.104197 0.106193 0.110965 0.117486 0.127705 0.122057 0.128837 0.133327 0.150425 0.134147 0.133593 0.157368 0.152039 0.160202
3584.0 0.078944 0.080813 0.084182 0.086305 0.094608 0.103441 0.105437 0.110194 0.116619 0.126682 0.121218 0.127905 0.132328 0.149201 0.133162 0.132624 0.156091 0.150758 0.158842
3586.0 0.078416 0.080335 0.083622 0.085726 0.093961 0.102692 0.104686 0.109428 0.115759 0.125668 0.120385 0.126980 0.131336 0.147987 0.132184 0.131662 0.154823 0.149487 0.157491
3588.0 0.077891 0.079861 0.083066 0.085151 0.093319 0.101948 0.103941 0.108668 0.114905 0.124662 0.119558 0.126061 0.130352 0.146782 0.131214 0.130707 0.153565 0.148226 0.156151
3590.0 0.077371 0.079390 0.082514 0.084581 0.092682 0.101210 0.103201 0.107914 0.114058 0.123664 0.118737 0.125150 0.129375 0.145586 0.130250 0.129759 0.152317 0.146975 0.154822
3592.0 0.076854 0.078922 0.081967 0.084014 0.092050 0.100478 0.102467 0.107165 0.113218 0.122675 0.117922 0.124246 0.128406 0.144399 0.129293 0.128817 0.151078 0.145734 0.153502
3594.0 0.076342 0.078457 0.081423 0.083453 0.091423 0.099752 0.101738 0.106422 0.112384 0.121693 0.117112 0.123349 0.127444 0.143222 0.128344 0.127882 0.149849 0.144502 0.152193
3596.0 0.075833 0.077995 0.080884 0.082895 0.090800 0.099032 0.101015 0.105684 0.111556 0.120720 0.116309 0.122458 0.126489 0.142054 0.127402 0.126954 0.148630 0.143280 0.150893
3598.0 0.075328 0.077536 0.080349 0.082342 0.090182 0.098317 0.100298 0.104952 0.110735 0.119754 0.115511 0.121575 0.125541 0.140895 0.126466 0.126033 0.147420 0.142067 0.149604
3600.0 0.074827 0.077080 0.079818 0.081793 0.089569 0.097608 0.099586 0.104225 0.109920 0.118797 0.114719 0.120698 0.124601 0.139745 0.125538 0.125118 0.146219 0.140864 0.148324
3602.0 0.074329 0.076628 0.079291 0.081248 0.088961 0.096904 0.098879 0.103503 0.109111 0.117847 0.113933 0.119828 0.123668 0.138605 0.124616 0.124210 0.145028 0.139671 0.147055
3604.0 0.073836 0.076178 0.078768 0.080707 0.088357 0.096207 0.098178 0.102787 0.108309 0.116905 0.113152 0.118965 0.122742 0.137473 0.123701 0.123309 0.143846 0.138487 0.145795
3606.0 0.073346 0.075732 0.078249 0.080171 0.087758 0.095514 0.097482 0.102076 0.107513 0.115971 0.112378 0.118108 0.121824 0.136350 0.122793 0.122414 0.142673 0.137312 0.144545
3608.0 0.072860 0.075288 0.077734 0.079638 0.087164 0.094827 0.096792 0.101371 0.106723 0.115045 0.111608 0.117259 0.120912 0.135236 0.121892 0.121526 0.141510 0.136146 0.143305
3610.0 0.072378 0.074848 0.077222 0.079110 0.086574 0.094146 0.096106 0.100670 0.105939 0.114126 0.110845 0.116415 0.120007 0.134131 0.120998 0.120644 0.140356 0.134990 0.142075
3612.0 0.071899 0.074410 0.076715 0.078586 0.085989 0.093470 0.095426 0.099975 0.105162 0.113215 0.110087 0.115579 0.119109 0.133035 0.120110 0.119768 0.139211 0.133843 0.140854
3614.0 0.071425 0.073975 0.076212 0.078066 0.085408 0.092800 0.094752 0.099286 0.104390 0.112312 0.109334 0.114749 0.118219 0.131948 0.119229 0.118899 0.138075 0.132705 0.139643
3616.0 0.070954 0.073544 0.075713 0.077550 0.084832 0.092135 0.094082 0.098601 0.103625 0.111416 0.108587 0.113925 0.117335 0.130869 0.118355 0.118037 0.136948 0.131576 0.138441
3618.0 0.070486 0.073115 0.075217 0.077038 0.084260 0.091476 0.093418 0.097922 0.102865 0.110528 0.107846 0.113108 0.116458 0.129799 0.117487 0.117180 0.135830 0.130456 0.137249
3620.0 0.070022 0.072689 0.074725 0.076530 0.083693 0.090821 0.092759 0.097247 0.102112 0.109647 0.107110 0.112297 0.115587 0.128737 0.116626 0.116330 0.134720 0.129345 0.136066
3622.0 0.069562 0.072266 0.074238 0.076026 0.083131 0.090173 0.092105 0.096578 0.101364 0.108774 0.106379 0.111493 0.114724 0.127684 0.115771 0.115487 0.133620 0.128243 0.134892
3624.0 0.069105 0.071846 0.073754 0.075526 0.082572 0.089529 0.091456 0.095914 0.100623 0.107908 0.105654 0.110695 0.113867 0.126639 0.114923 0.114649 0.132528 0.127149 0.133728
3626.0 0.068652 0.071429 0.073273 0.075030 0.082018 0.088891 0.090813 0.095255 0.099887 0.107049 0.104934 0.109904 0.113017 0.125603 0.114081 0.113818 0.131446 0.126065 0.132573
3628.0 0.068203 0.071015 0.072797 0.074538 0.081469 0.088257 0.090174 0.094600 0.099157 0.106198 0.104220 0.109118 0.112174 0.124576 0.113245 0.112993 0.130371 0.124989 0.131427
3630.0 0.067757 0.070603 0.072324 0.074049 0.080924 0.087629 0.089540 0.093951 0.098433 0.105353 0.103510 0.108339 0.111337 0.123556 0.112416 0.112174 0.129306 0.123922 0.130290
3632.0 0.067314 0.070195 0.071855 0.073565 0.080383 0.087007 0.088911 0.093307 0.097715 0.104516 0.102806 0.107566 0.110507 0.122545 0.111594 0.111361 0.128249 0.122864 0.129162
3634.0 0.066875 0.069789 0.071390 0.073084 0.079846 0.086389 0.088288 0.092668 0.097002 0.103687 0.102108 0.106800 0.109683 0.121542 0.110777 0.110554 0.127200 0.121814 0.128044
3636.0 0.066440 0.069386 0.070928 0.072608 0.079314 0.085776 0.087669 0.092034 0.096295 0.102864 0.101414 0.106039 0.108866 0.120548 0.109967 0.109753 0.126161 0.120773 0.126934
3638.0 0.066008 0.068986 0.070470 0.072134 0.078786 0.085169 0.087055 0.091404 0.095594 0.102048 0.100726 0.105285 0.108055 0.119561 0.109163 0.108958 0.125129 0.119740 0.125833
3640.0 0.065579 0.068588 0.070015 0.071665 0.078262 0.084566 0.086446 0.090779 0.094899 0.101239 0.100043 0.104536 0.107251 0.118583 0.108365 0.108169 0.124106 0.118715 0.124741
3642.0 0.065154 0.068194 0.069565 0.071200 0.077743 0.083969 0.085841 0.090160 0.094209 0.100438 0.099365 0.103794 0.106453 0.117612 0.107573 0.107386 0.123091 0.117699 0.123658
3644.0 0.064732 0.067802 0.069117 0.070738 0.077227 0.083376 0.085242 0.089544 0.093525 0.099643 0.098692 0.103057 0.105662 0.116650 0.106788 0.106609 0.122084 0.116692 0.122584
3646.0 0.064314 0.067413 0.068674 0.070280 0.076716 0.082789 0.084647 0.088934 0.092846 0.098855 0.098024 0.102327 0.104876 0.115695 0.106008 0.105838 0.121086 0.115692 0.121518
3648.0 0.063899 0.067026 0.068234 0.069825 0.076209 0.082206 0.084057 0.088329 0.092173 0.098074 0.097361 0.101602 0.104097 0.114749 0.105235 0.105073 0.120096 0.114701 0.120461
3650.0 0.063487 0.066642 0.067797 0.069375 0.075706 0.081628 0.083472 0.087728 0.091505 0.097300 0.096704 0.100883 0.103325 0.113810 0.104467 0.104313 0.119114 0.113718 0.119413
3652.0 0.063078 0.066261 0.067364 0.068927 0.075206 0.081055 0.082892 0.087132 0.090842 0.096532 0.096051 0.100170 0.102558 0.112879 0.103706 0.103559 0.118140 0.112743 0.118373
3654.0 0.062673 0.065883 0.066934 0.068484 0.074711 0.080487 0.082316 0.086540 0.090185 0.095771 0.095403 0.099463 0.101798 0.111956 0.102950 0.102811 0.117174 0.111776 0.117341
3656.0 0.062271 0.065507 0.066508 0.068044 0.074220 0.079924 0.081745 0.085953 0.089534 0.095017 0.094760 0.098762 0.101043 0.111040 0.102201 0.102069 0.116216 0.110817 0.116318
3658.0 0.061872 0.065134 0.066085 0.067608 0.073733 0.079365 0.081178 0.085371 0.088888 0.094269 0.094122 0.098066 0.100295 0.110132 0.101457 0.101332 0.115266 0.109867 0.115304
3660.0 0.061477 0.064763 0.065666 0.067175 0.073250 0.078811 0.080616 0.084793 0.088247 0.093528 0.093489 0.097376 0.099553 0.109232 0.100719 0.100601 0.114324 0.108924 0.114298
3662.0 0.061085 0.064395 0.065250 0.066745 0.072771 0.078262 0.080059 0.084220 0.087611 0.092794 0.092861 0.096692 0.098817 0.108339 0.099987 0.099875 0.113389 0.107989 0.113300
3664.0 0.060696 0.064030 0.064837 0.066320 0.072296 0.077717 0.079506 0.083651 0.086981 0.092066 0.092237 0.096013 0.098086 0.107454 0.099260 0.099155 0.112463 0.107061 0.112310
3666.0 0.060310 0.063667 0.064428 0.065897 0.071825 0.077178 0.078958 0.083087 0.086356 0.091344 0.091619 0.095340 0.097362 0.106576 0.098539 0.098440 0.111544 0.106142 0.111329
3668.0 0.059927 0.063307 0.064022 0.065478 0.071358 0.076642 0.078414 0.082527 0.085736 0.090629 0.091005 0.094673 0.096644 0.105706 0.097824 0.097731 0.110633 0.105230 0.110355
3670.0 0.059548 0.062950 0.063620 0.065063 0.070894 0.076112 0.077874 0.081972 0.085121 0.089920 0.090395 0.094011 0.095931 0.104843 0.097115 0.097028 0.109729 0.104326 0.109390
3672.0 0.059171 0.062595 0.063220 0.064651 0.070434 0.075585 0.077339 0.081421 0.084511 0.089218 0.089791 0.093354 0.095224 0.103987 0.096411 0.096330 0.108833 0.103429 0.108433
3674.0 0.058798 0.062242 0.062824 0.064242 0.069978 0.075064 0.076809 0.080874 0.083906 0.088522 0.089191 0.092703 0.094524 0.103139 0.095713 0.095637 0.107945 0.102540 0.107483
3676.0 0.058428 0.061892 0.062432 0.063837 0.069526 0.074547 0.076282 0.080332 0.083307 0.087832 0.088596 0.092057 0.093828 0.102298 0.095020 0.094950 0.107064 0.101659 0.106542
3678.0 0.058060 0.061545 0.062042 0.063435 0.069078 0.074034 0.075760 0.079794 0.082712 0.087148 0.088005 0.091417 0.093139 0.101464 0.094333 0.094268 0.106191 0.100785 0.105609
3680.0 0.057696 0.061200 0.061656 0.063037 0.068633 0.073526 0.075243 0.079261 0.082123 0.086470 0.087419 0.090782 0.092455 0.100637 0.093651 0.093591 0.105324 0.099919 0.104683
3682.0 0.057335 0.060857 0.061273 0.062641 0.068192 0.073022 0.074729 0.078731 0.081538 0.085799 0.086838 0.090152 0.091777 0.099817 0.092975 0.092919 0.104466 0.099060 0.103765
3684.0 0.056977 0.060517 0.060893 0.062249 0.067755 0.072522 0.074220 0.078206 0.080958 0.085134 0.086261 0.089528 0.091104 0.099005 0.092304 0.092253 0.103614 0.098208 0.102855
3686.0 0.056622 0.060180 0.060516 0.061861 0.067321 0.072027 0.073716 0.077686 0.080383 0.084474 0.085689 0.088908 0.090437 0.098199 0.091638 0.091592 0.102770 0.097363 0.101953
