# Based on deg 6 polynomial fit to  "empty" Random 3.5" apertures with shot variable g limit
# shifted (add) to match estimated depth (25.7) at 1.75" and scaled down, per wavelength, to an idealized per fiber level.
# 'Empty' defined as mean IFU depth from ELiXer.
# Model from biweight stack of "empty" apertures from shots from 2020.
# WAVE MODEL_FLUXD          STACK_FLUXD         STACK_FLUXDe    (e-17)
3470.0 0.020854092453134854 0.020641764305160737 0.00048572376834649957
3472.0 0.020708013218960986 0.020633540154333285 0.0004856360757351392
3474.0 0.020562947236992812 0.020626560918705236 0.0004855728506533224
3476.0 0.0204188891435102 0.0204280908229019 0.0004870968205106632
3478.0 0.020275833594279646 0.02050273633666366 0.0004892512719670678
3480.0 0.02013377526440152 0.020715505054248413 0.000493451884377455
3482.0 0.019992708848434404 0.02038287707432727 0.0005008691394444919
3484.0 0.019852629060192584 0.020390179720464564 0.000513608377418758
3486.0 0.019713530632831322 0.020371027645455494 0.0005340411156590973
3488.0 0.019575408318694087 0.02009969325540742 0.0005659470756011307
3490.0 0.019438256889340977 0.019528516624925104 0.0006061976474960817
3492.0 0.01930207113555582 0.0193673771595434 0.0006575746463467597
3494.0 0.019166845867204074 0.018942749236270134 0.0007156998784831083
3496.0 0.01903257591319729 0.019440363535367426 0.0007595983906665644
3498.0 0.018899256121571284 0.018623778330142924 0.0008091707876400349
3500.0 0.018766881359297827 0.018894535563426552 0.0008533589334495859
3502.0 0.01863544651236637 0.01770883398865152 0.0008799282566664074
3504.0 0.01850494648565615 0.018543862115015658 0.0008857235417056297
3506.0 0.018375376202950378 0.019450708816427027 0.0009104678112749647
3508.0 0.018246730606851003 0.01872144567232883 0.0009237322015338654
3510.0 0.018119004658785798 0.018031667735171997 0.0009337636532584704
3512.0 0.017992193338951523 0.01716721674602236 0.0009087229135159925
3514.0 0.01786629164626774 0.017228546200482288 0.0008936901991322589
3516.0 0.01774129459829865 0.01745479037622585 0.0008892807063175173
3518.0 0.01761719723130284 0.016421031293200196 0.0008817786057404958
3520.0 0.01749399460013379 0.017017281425147347 0.0008575615557003942
3522.0 0.0173716817781866 0.016189919013267762 0.0008316055209243949
3524.0 0.017250253857408637 0.016711880078939007 0.0008100402434711247
3526.0 0.017129705948235596 0.015956050178849376 0.0008040377897620454
3528.0 0.017010033179481354 0.016369882635947224 0.000808493286190475
3530.0 0.016891230698476534 0.016573350745828625 0.0008090801109388586
3532.0 0.016773293670837575 0.016049434264049593 0.0007975366069374791
3534.0 0.01665621728052713 0.016441981130517903 0.0007868273863429892
3536.0 0.016539996729797224 0.01760538368883816 0.0008102104286830906
3538.0 0.016424627239160827 0.019263937469546813 0.0008888274725742292
3540.0 0.01631010404733857 0.01921412193449412 0.0010006078715643354
3542.0 0.016196422411173472 0.017764515766445853 0.0010294463170932796
3544.0 0.016083577605716215 0.016989081758055045 0.0010215602112594942
3546.0 0.01597156492403684 0.016515544012910322 0.0010078634338542601
3548.0 0.015860379677292258 0.017193394231085447 0.0009652695088761982
3550.0 0.01575001719462321 0.017032966128964922 0.0009506903784923772
3552.0 0.015640472823196916 0.01653799127232227 0.000952587124530665
3554.0 0.015531741928075604 0.015860772251190324 0.0009483620744575628
3556.0 0.015423819892181001 0.014807604912096515 0.0009395235813770532
3558.0 0.015316702116347614 0.015586361777266659 0.0009128784614894939
3560.0 0.015210384019212597 0.016303224252655863 0.0008791433597166387
3562.0 0.01510486103716957 0.015586738918131964 0.0008538298078991126
3564.0 0.015000128624340192 0.015854881724132103 0.0008139869569002647
3566.0 0.014896182252584822 0.014713462607376496 0.0007919815593398971
3568.0 0.01479301741137462 0.01485953036586478 0.0007489005615454795
3570.0 0.014690629607851946 0.014618940720956302 0.0007447939485967319
3572.0 0.014589014366698905 0.01416039565835281 0.0007197171123287659
3574.0 0.01448816723013735 0.014379496982038302 0.0007248780681342441
3576.0 0.014388083757914671 0.013739838253836397 0.0007164664812515757
3578.0 0.014288759527236294 0.013638348743654808 0.0006943202137746285
3580.0 0.014190190132733704 0.013614744937038133 0.0006705247771001826
3582.0 0.014092371186386288 0.013566737743607378 0.0006610620302713613
3584.0 0.013995298317595939 0.0133428052432794 0.0006462087108768916
3586.0 0.013898967173002319 0.013626570139224255 0.000637251675908998
3588.0 0.013803373416543252 0.0135312852656243 0.0006346013855302488
3590.0 0.013708512729387223 0.012782072382807748 0.0006534508945187118
3592.0 0.013614380809915616 0.012577656983275523 0.0006575752214577519
3594.0 0.013520973373587708 0.013014201855828031 0.0006603824019301302
3596.0 0.013428286153072122 0.01295519348053602 0.0006541187569661247
3598.0 0.013336314898065638 0.01273997683401845 0.0006534665477077535
3600.0 0.013245055375261217 0.012721353102572712 0.000640944556262922
3602.0 0.01315450336846169 0.012296543539818064 0.0006333941736407976
3604.0 0.013064654678323961 0.012560380678636275 0.0006199992870586254
3606.0 0.012975505122483355 0.012633780849164685 0.0006135907854265409
3608.0 0.012887050535461242 0.012571936223116835 0.0006011017278495992
3610.0 0.012799286768551354 0.01294682811108272 0.0006031338420862757
3612.0 0.012712209689940579 0.012390560801397058 0.0006219525100213239
3614.0 0.012625815184563294 0.011506280903902343 0.0006796882467812662
3616.0 0.012540099154055184 0.011100970664437455 0.0006941114071143578
3618.0 0.012455057516753243 0.01175416371575673 0.0006932136348418082
3620.0 0.012370686207663795 0.012769209979648876 0.0006822309844160343
3622.0 0.012286981178394996 0.012331659923618735 0.0006755780813845398
3624.0 0.012203938397128411 0.011968947383190261 0.0006687206766670882
3626.0 0.012121553848608357 0.011958733602741347 0.0006655832128830015
3628.0 0.01203982353406019 0.011676536464049942 0.0006741772366942666
3630.0 0.011958743471151223 0.011205176556451991 0.000679554049604309
3632.0 0.011878309694019151 0.011496698954967712 0.0006870848083838629
3634.0 0.011798518253151258 0.0115347101526385 0.0006937609067826725
3636.0 0.01171936521540573 0.012021309521422392 0.0006983539255999925
3638.0 0.011640846663912185 0.012297086783727564 0.0006936580762103705
3640.0 0.01156295869813917 0.01208927592382618 0.0006789756158021503
3642.0 0.01148569743373784 0.012244416765073918 0.0006601778131931597
3644.0 0.011409059002556177 0.011538874832568316 0.000645513964307251
3646.0 0.011333039552624768 0.011640886635839268 0.0006205723782593707
3648.0 0.01125763524808221 0.01125763172130167 0.0006178013477117319
3650.0 0.011182842269160886 0.011445874759845088 0.0006078122780739245
3652.0 0.01110865681210882 0.011142185670155747 0.0006109120538309352
3654.0 0.011035075089218083 0.011481850027376868 0.0006031652475943423
3656.0 0.010962093328732436 0.010691208620322364 0.0006065021486029443
3658.0 0.01088970777481535 0.010215394190172292 0.000610734873561396
3660.0 0.010817914687550001 0.010031534206104087 0.0006149116719983356
3662.0 0.01074671034287178 0.010333623485215727 0.000610012463575172
3664.0 0.010676091032507884 0.010275524100663755 0.0005984927332959348
3666.0 0.010606053064002197 0.010730268187353969 0.0005829585025993234
3668.0 0.010536592760615804 0.010752647083762862 0.0005631897679522413
3670.0 0.010467706461362525 0.010285913443622192 0.0005556768744533246
3672.0 0.010399390520834828 0.009705909896781748 0.0005500417365607641
3674.0 0.010331641309338835 0.010238453914614825 0.0005473883380650379
3676.0 0.010264455212759316 0.01040419500676044 0.0005319475994738706
3678.0 0.010197828632538375 0.010137421602416416 0.0005195150311345956
3680.0 0.010131757985593737 0.009818826793344611 0.0005075075011460262
3682.0 0.010066239704350721 0.009564418872974847 0.0005103500142496825
3684.0 0.01000127023673869 0.009160000883964483 0.0005098605302037339
3686.0 0.009936846046006309 0.009281760239258311 0.0005032986330922466
3688.0 0.009872963610806806 0.008793259875550012 0.0005013599393991839
3690.0 0.009809619425137583 0.00908517910264173 0.0005096929757110897
3692.0 0.009746809998297579 0.009234399891559377 0.000513765447570864
3694.0 0.009684531854826872 0.00970192217490387 0.0005131933901501501
3696.0 0.009622781534481817 0.0085580661821521 0.0005368473361426974
3698.0 0.009561555592199511 0.007985889537920761 0.0005705265492010826
3700.0 0.009500850598119115 0.008122451722500219 0.0005848420102610101
3702.0 0.009440663137414873 0.008958224166331725 0.0005818730054150792
3704.0 0.009380989810388485 0.009348442791973385 0.0005657003160031035
3706.0 0.009321827232362523 0.00964542977423325 0.0005469467584310782
3708.0 0.00926317203366267 0.009328517972942008 0.0005357665367369976
3710.0 0.009205020859525348 0.009344566199906002 0.0005293504989786061
3712.0 0.00914737037021851 0.009009273262778152 0.0005331397913965174
3714.0 0.009090217240853349 0.009242124119271534 0.0005258258788616352
3716.0 0.00903355816131679 0.009310647263866562 0.0005177111429391702
3718.0 0.008977389836427818 0.009730558850675917 0.0004904732252140731
3720.0 0.008921708985720755 0.009214971697113963 0.0004714942602562076
3722.0 0.00886651234349145 0.008998044759925296 0.00046993067160372697
3724.0 0.00881179665870846 0.008460552135075412 0.0004936041571848601
3726.0 0.008757558695101864 0.0081561130629658 0.0005043992083258985
3728.0 0.008703795230893263 0.008279228326419412 0.0005154004341066677
3730.0 0.008650503059040915 0.008284641093991624 0.0005319417881822245
3732.0 0.00859767898696262 0.00773476208974159 0.000540902117634824
3734.0 0.008545319836663623 0.008797573925184219 0.0005352686958914807
3736.0 0.008493422444573184 0.008530286030199534 0.0005406639393236788
3738.0 0.008441983661654717 0.007851557592005511 0.0005680968758481808
3740.0 0.008391000353196176 0.00801225149154288 0.0005843517036062312
3742.0 0.008340469398898875 0.009232343665838137 0.0005738879758935094
3744.0 0.00829038769286683 0.009476509376442196 0.0005430617915077276
3746.0 0.008240752143372276 0.009448551204672157 0.0005124606319577482
3748.0 0.008191559673107918 0.009073796080538394 0.00049045694953739
3750.0 0.008142807218906256 0.008713692744373324 0.000491372793439067
3752.0 0.008094491731792886 0.00790799104672237 0.00049996442315251
3754.0 0.00804661017701136 0.007977247866444073 0.0005105987740688581
3756.0 0.007999159533866873 0.00839267473356451 0.0004889363819626973
3758.0 0.007952136795779552 0.008588428923280138 0.00047682114673196376
3760.0 0.007905538970241821 0.008316442644770269 0.0004572340420488302
3762.0 0.007859363078740245 0.008127976396819538 0.00045583059760133095
3764.0 0.007813606156737762 0.008057173460882833 0.00044861512904852916
3766.0 0.007768265253620399 0.0081867878203233 0.00043739798297411255
3768.0 0.007723337432750554 0.00834076341913082 0.00043617140536089823
3770.0 0.007678819771285816 0.007251088004197648 0.0004468645106709199
3772.0 0.007634709360260672 0.007110626900592243 0.0004631626561815864
3774.0 0.00759100330449769 0.007545071476382404 0.00046754721368700224
3776.0 0.007547698722603968 0.007490029689735119 0.00046349510140361025
3778.0 0.007504792746861 0.007594375882120189 0.000457138702440488
3780.0 0.007462282523317043 0.007619693346260114 0.0004518037681936822
3782.0 0.007420165211634355 0.007424342604716104 0.0004515992190572327
3784.0 0.007378437985053665 0.007208091830097199 0.00044709030217928553
3786.0 0.007337098030504308 0.007847077861784738 0.00043835410758240757
3788.0 0.007296142548355533 0.007575235206659194 0.00043012664203019547
3790.0 0.007255568752597696 0.006785297350695537 0.0004446785739129283
3792.0 0.007215373870600672 0.0071642458621419625 0.0004485107400735769
3794.0 0.007175555143245305 0.007300647914778939 0.0004463010306203955
3796.0 0.007136109824770642 0.007958945222574215 0.00042584802941575406
3798.0 0.007097035182852096 0.007900555885136822 0.00041519643509930153
3800.0 0.007058328498438016 0.007441961071753484 0.00041404047954804826
3802.0 0.007019987065792321 0.007264332432540595 0.0004256584700330999
3804.0 0.006982008192473188 0.0072223588751103625 0.00042225229522230555
3806.0 0.0069443891991944895 0.007259255586321301 0.0004137341404393875
3808.0 0.006907127419996328 0.007175509105767981 0.0004114523117336808
3810.0 0.006870220201960819 0.007064206581508631 0.0004219900002412059
3812.0 0.006833664905329329 0.006684325273413567 0.0004363245493897187
3814.0 0.00679745890344563 0.0064426689067803924 0.0004358057165815585
3816.0 0.006761599582684852 0.006794327129295449 0.0004418558384426385
3818.0 0.006726084342474792 0.006941252813908895 0.00042900761131859586
3820.0 0.006690910595175126 0.007131352762346746 0.0004285097867769795
3822.0 0.006656075766162672 0.006861328078003125 0.0004154944181195924
3824.0 0.006621577293664416 0.007531161857125139 0.00041132116061555474
3826.0 0.006587412628800138 0.0067447310070678215 0.0004214407184720722
3828.0 0.006553579235564655 0.00621571864769846 0.00046232670705245623
3830.0 0.006520074590714131 0.00590696818661844 0.00048410866186916437
3832.0 0.006486896183840685 0.006870259563300704 0.0004814236696617351
3834.0 0.006454041517176989 0.007488295218402902 0.0004655755394544346
3836.0 0.006421508105731277 0.007419863767175994 0.00044528358675078125
3838.0 0.006389293477209179 0.007252527649175602 0.0004267036854733477
3840.0 0.006357395171853852 0.006963362037464677 0.0004193752869926886
3842.0 0.006325810742605853 0.006632589071849965 0.00042703001256693367
3844.0 0.006294537754854446 0.0063425764226026585 0.00043192608138020586
3846.0 0.006263573786657872 0.006261601658755249 0.0004286909040282152
3848.0 0.006232916428437818 0.006776960021175462 0.0004154163042998682
3850.0 0.006202563283178364 0.006534729549210952 0.0004107362461652385
3852.0 0.006172511966209271 0.00661454738363106 0.00040036028153114453
3854.0 0.006142760105319667 0.0063945038633661765 0.0003964241667228644
3856.0 0.006113305340576858 0.0065181753561162695 0.0003870354991309969
3858.0 0.006084145324450674 0.006634194130548651 0.0003700274274807961
3860.0 0.006055277721642938 0.006249089784805966 0.0003714621835539749
3862.0 0.00602670020911944 0.006015873810502039 0.00038069849823348356
3864.0 0.005998410476077964 0.0061257309778476685 0.00038556474109014457
3866.0 0.005970406223884339 0.006161578467801913 0.0003802212885818054
3868.0 0.00594268516605112 0.006298556425853723 0.000369460850239348
3870.0 0.005915245028226934 0.006447831997844821 0.00035413339304716363
3872.0 0.005888083548114764 0.006123274503246874 0.00035318825025894637
3874.0 0.005861198475461293 0.006007445303834521 0.0003645158127880099
3876.0 0.0058345875720640095 0.006107938332799747 0.00036762747266319784
3878.0 0.005808248611668176 0.00597475007574562 0.00035963104947393354
3880.0 0.005782179379920649 0.006114858111088946 0.0003440645990928491
3882.0 0.0057563776744693484 0.006239674747998 0.0003496597873021836
3884.0 0.0057308413047749696 0.0060573026079789915 0.0003405246272324961
3886.0 0.005705568092135849 0.006125775516562566 0.0003394112965067718
3888.0 0.00568055586969507 0.006290732434690855 0.00033082708584474007
3890.0 0.005655802482333883 0.006004782084209183 0.0003405640410316049
3892.0 0.005631305786675256 0.006034344525863746 0.0003470227135014108
3894.0 0.005607063651055455 0.005723574245945978 0.00035250064892842847
3896.0 0.005583073955488516 0.005562451275037876 0.0003554134735398112
3898.0 0.005559334591637821 0.00595459472146819 0.00035806162467062367
3900.0 0.0055358434626917585 0.005688816449419765 0.00036379651145389383
3902.0 0.005512598483488063 0.005532743823426417 0.00037315290466118995
3904.0 0.005489597580378813 0.005493177710044326 0.00038756236087543434
3906.0 0.005466838691233988 0.005031775494333897 0.00040804529373909766
3908.0 0.005444319765327776 0.005388789054625776 0.00041396231250745506
3910.0 0.0054220387634060785 0.005386662591155216 0.0004183442816585389
3912.0 0.005399993657640323 0.005211441693048007 0.0004097926415401404
3914.0 0.005378182431538647 0.00522089510533381 0.0004010679740886703
3916.0 0.005356603079938793 0.005617537663876929 0.0003884486979577117
3918.0 0.005335253608979684 0.005525713623777266 0.00037519715196324317
3920.0 0.00531413203608011 0.005596747099710654 0.0003584214925694193
3922.0 0.005293236389874778 0.00558016066392094 0.00035092168360534965
3924.0 0.0052725647102001005 0.005617045331991947 0.00034677293436653187
3926.0 0.0052521150480622225 0.005429148867367974 0.00034166512483444595
3928.0 0.005231885465580177 0.005513240683894248 0.00032863599514694144
3930.0 0.005211874035996544 0.005591599890074467 0.00032085706182807393
3932.0 0.0051920788435850795 0.005623627509456954 0.000308536080515054
3934.0 0.005172497983679136 0.005588908966868675 0.0003053975123613141
3936.0 0.0051531295626219276 0.005724146228561081 0.00031532215447530027
3938.0 0.0051339716976634975 0.004788566330035569 0.0003461027459185388
3940.0 0.0051150225170424335 0.004770413499626132 0.0003678198425085436
3942.0 0.005096280159854416 0.004783762697382263 0.0003693700472184398
3944.0 0.005077742776069982 0.0050573902424252415 0.0003688884306621534
3946.0 0.005059408526555842 0.0047932893806463435 0.00036281983149207323
3948.0 0.005041275582826188 0.005022397298816008 0.000361663241569192
3950.0 0.005023342127305597 0.004845369983910255 0.0003531212868003593
3952.0 0.005005606353083891 0.004780722869314128 0.0003512243191804458
3954.0 0.004988066463951668 0.00508308381331982 0.0003449642570692836
3956.0 0.00497072067440385 0.00506604111207872 0.00034013768292839413
3958.0 0.004953567209508236 0.00511841950503996 0.0003398869216112212
3960.0 0.004936604304948133 0.005005312600221765 0.00033039983604401884
3962.0 0.004919830207022358 0.004950105147448521 0.0003209010995223435
3964.0 0.004903243172488914 0.005033195262501811 0.0003066008965764969
3966.0 0.0048868414686857875 0.005536987830842057 0.00029239201413345877
3968.0 0.004870623373324889 0.005851072213733515 0.0002761503274457184
3970.0 0.004854587174659031 0.005548911896150819 0.00028386451674202075
3972.0 0.0048387311712616565 0.005151548307254878 0.0003101089768914942
3974.0 0.004823053672105004 0.0046620984552754085 0.0003274232563433972
3976.0 0.004807552996485498 0.004615596309708398 0.0003377512562636428
3978.0 0.004792227474013089 0.004638502817128264 0.00034261338071225276
3980.0 0.004777075444593493 0.0044805445960191155 0.00034227645300148775
3982.0 0.004762095258332266 0.004367518067053 0.00033962138475427875
3984.0 0.0047472852755561235 0.00477820824822641 0.000333657783257914
3986.0 0.004732643866756092 0.00476685468524452 0.0003319802707781832
3988.0 0.004718169412601725 0.004586209423263204 0.0003330021114344206
3990.0 0.004703860303770568 0.004743500459360015 0.0003350913876789028
3992.0 0.004689714941175538 0.004493054134432155 0.00033094453533289965
3994.0 0.004675731735634514 0.004759883129864277 0.00032610213833974075
3996.0 0.0046619091080302155 0.004626453388128405 0.0003232064118677972
3998.0 0.004648245489210723 0.004468193808812951 0.0003272015706076175
4000.0 0.0046347393200179 0.004369954509800679 0.00033141599534922784
4002.0 0.004621389051145286 0.004750909401139564 0.00033314669487541403
4004.0 0.004608193143166517 0.005009614873787124 0.0003273660313620499
4006.0 0.004595150066563747 0.0043911216998896545 0.000339657765137285
4008.0 0.0045822583015926455 0.004259878397297588 0.0003503517070049714
4010.0 0.004569516338307267 0.004308401801181824 0.0003586010494610163
4012.0 0.004556922676474784 0.004230060342423892 0.0003557593499190682
4014.0 0.00454447582566786 0.004478852861946929 0.00034999220662642493
4016.0 0.0045321743050692476 0.004665538938908631 0.0003429059887993775
4018.0 0.004520016643549951 0.004349246730734026 0.00034124780882814013
4020.0 0.004508001379630144 0.0042717784238735955 0.0003414955545474045
