# Based on deg 6 polynomial fit to  "empty" Random 3.5" apertures with shot variable g limit 
# shifted s|t 3.5" radius aperture at 1.7" seeing is g = 25.1.
# 'Empty' defined as mean IFU depth from ELiXer.
# Model from biweight stack of "empty" apertures from shots from 2020.
# WAVE 1.2      1.3      1.4      1.5      1.6      1.7      1.8      1.9      2.0      2.1      2.2      2.3      2.4      2.5      2.6      2.7      2.8      2.9      3.0       
3470.0 0.032137 0.024328 0.024045 0.023360 0.023756 0.023486 0.023324 0.022284 0.022412 0.022061 0.020513 0.020316 0.019126 0.019177 0.018001 0.017745 0.018490 0.017498 0.019211  
3472.0 0.031845 0.024186 0.023900 0.023213 0.023605 0.023339 0.023173 0.022145 0.022264 0.021910 0.020394 0.020188 0.019012 0.019067 0.017879 0.017642 0.018370 0.017406 0.019097  
3474.0 0.031557 0.024046 0.023757 0.023068 0.023454 0.023193 0.023023 0.022006 0.022118 0.021760 0.020275 0.020061 0.018900 0.018958 0.017757 0.017539 0.018250 0.017313 0.018983  
3476.0 0.031271 0.023907 0.023615 0.022923 0.023305 0.023048 0.022875 0.021868 0.021973 0.021611 0.020157 0.019935 0.018788 0.018849 0.017637 0.017437 0.018131 0.017221 0.018870  
3478.0 0.030989 0.023768 0.023474 0.022780 0.023157 0.022904 0.022728 0.021731 0.021829 0.021464 0.020040 0.019810 0.018676 0.018740 0.017517 0.017335 0.018012 0.017129 0.018758  
3480.0 0.030710 0.023631 0.023334 0.022637 0.023010 0.022762 0.022582 0.021596 0.021686 0.021317 0.019924 0.019686 0.018565 0.018633 0.017398 0.017234 0.017895 0.017037 0.018646  
3482.0 0.030433 0.023494 0.023194 0.022496 0.022864 0.022620 0.022436 0.021461 0.021544 0.021172 0.019808 0.019562 0.018455 0.018525 0.017280 0.017133 0.017778 0.016945 0.018535  
3484.0 0.030160 0.023358 0.023056 0.022355 0.022720 0.022479 0.022292 0.021327 0.021403 0.021027 0.019692 0.019440 0.018346 0.018419 0.017163 0.017033 0.017662 0.016854 0.018424  
3486.0 0.029889 0.023223 0.022919 0.022216 0.022576 0.022339 0.022149 0.021194 0.021264 0.020884 0.019578 0.019318 0.018237 0.018313 0.017047 0.016934 0.017547 0.016763 0.018314  
3488.0 0.029622 0.023089 0.022782 0.022078 0.022433 0.022200 0.022007 0.021062 0.021125 0.020742 0.019464 0.019197 0.018129 0.018207 0.016932 0.016835 0.017432 0.016672 0.018205  
3490.0 0.029358 0.022956 0.022647 0.021941 0.022292 0.022062 0.021866 0.020931 0.020987 0.020601 0.019350 0.019077 0.018021 0.018102 0.016818 0.016736 0.017319 0.016582 0.018096  
3492.0 0.029096 0.022824 0.022512 0.021805 0.022152 0.021926 0.021726 0.020801 0.020850 0.020461 0.019238 0.018958 0.017914 0.017998 0.016704 0.016638 0.017206 0.016492 0.017987  
3494.0 0.028838 0.022693 0.022379 0.021670 0.022012 0.021789 0.021586 0.020670 0.020713 0.020321 0.019124 0.018838 0.017807 0.017893 0.016590 0.016540 0.017092 0.016401 0.017878  
3496.0 0.028582 0.022562 0.022246 0.021535 0.021873 0.021653 0.021447 0.020541 0.020577 0.020182 0.019012 0.018718 0.017700 0.017788 0.016477 0.016442 0.016980 0.016310 0.017770  
3498.0 0.028330 0.022433 0.022114 0.021402 0.021735 0.021519 0.021309 0.020412 0.020442 0.020044 0.018900 0.018600 0.017593 0.017684 0.016365 0.016345 0.016868 0.016220 0.017662  
3500.0 0.028080 0.022305 0.021983 0.021270 0.021598 0.021385 0.021172 0.020285 0.020308 0.019907 0.018788 0.018483 0.017487 0.017580 0.016254 0.016248 0.016757 0.016130 0.017554  
3502.0 0.027833 0.022177 0.021853 0.021139 0.021462 0.021253 0.021036 0.020158 0.020175 0.019771 0.018677 0.018366 0.017382 0.017477 0.016143 0.016151 0.016646 0.016040 0.017448  
3504.0 0.027589 0.022050 0.021724 0.021009 0.021328 0.021121 0.020901 0.020032 0.020043 0.019636 0.018567 0.018250 0.017278 0.017375 0.016034 0.016056 0.016537 0.015950 0.017341  
3506.0 0.027347 0.021924 0.021596 0.020880 0.021194 0.020991 0.020768 0.019908 0.019912 0.019502 0.018458 0.018135 0.017174 0.017273 0.015925 0.015961 0.016428 0.015861 0.017236  
3508.0 0.027107 0.021799 0.021469 0.020752 0.021062 0.020861 0.020635 0.019784 0.019783 0.019370 0.018350 0.018021 0.017071 0.017172 0.015817 0.015866 0.016320 0.015772 0.017131  
3510.0 0.026870 0.021674 0.021342 0.020625 0.020930 0.020733 0.020503 0.019661 0.019654 0.019238 0.018242 0.017908 0.016969 0.017072 0.015710 0.015772 0.016213 0.015684 0.017026  
3512.0 0.026636 0.021551 0.021217 0.020499 0.020800 0.020605 0.020373 0.019539 0.019526 0.019108 0.018134 0.017795 0.016867 0.016972 0.015604 0.015679 0.016106 0.015596 0.016922  
3514.0 0.026404 0.021428 0.021092 0.020373 0.020670 0.020479 0.020243 0.019419 0.019399 0.018978 0.018028 0.017684 0.016766 0.016872 0.015499 0.015586 0.016001 0.015508 0.016819  
3516.0 0.026175 0.021306 0.020968 0.020249 0.020542 0.020353 0.020114 0.019299 0.019274 0.018850 0.017922 0.017573 0.016666 0.016773 0.015394 0.015494 0.015896 0.015420 0.016716  
3518.0 0.025947 0.021184 0.020845 0.020126 0.020414 0.020228 0.019986 0.019179 0.019148 0.018722 0.017816 0.017463 0.016566 0.016675 0.015290 0.015402 0.015791 0.015333 0.016614  
3520.0 0.025719 0.021061 0.020719 0.020001 0.020284 0.020101 0.019857 0.019059 0.019023 0.018594 0.017710 0.017352 0.016466 0.016576 0.015187 0.015310 0.015687 0.015245 0.016512  
3522.0 0.025494 0.020938 0.020595 0.019877 0.020156 0.019976 0.019729 0.018939 0.018898 0.018468 0.017605 0.017243 0.016366 0.016478 0.015084 0.015219 0.015584 0.015159 0.016410  
3524.0 0.025271 0.020817 0.020472 0.019754 0.020029 0.019852 0.019602 0.018821 0.018774 0.018342 0.017501 0.017134 0.016267 0.016381 0.014982 0.015128 0.015481 0.015072 0.016309  
3526.0 0.025051 0.020696 0.020349 0.019632 0.019903 0.019728 0.019476 0.018704 0.018652 0.018217 0.017397 0.017026 0.016169 0.016284 0.014881 0.015038 0.015379 0.014986 0.016209  
3528.0 0.024833 0.020576 0.020228 0.019511 0.019777 0.019606 0.019351 0.018587 0.018530 0.018093 0.017293 0.016919 0.016072 0.016188 0.014781 0.014949 0.015278 0.014900 0.016109  
3530.0 0.024617 0.020456 0.020107 0.019390 0.019653 0.019485 0.019227 0.018471 0.018409 0.017971 0.017191 0.016812 0.015975 0.016092 0.014681 0.014860 0.015178 0.014814 0.016010  
3532.0 0.024404 0.020338 0.019987 0.019271 0.019530 0.019364 0.019103 0.018357 0.018289 0.017849 0.017089 0.016706 0.015878 0.015997 0.014582 0.014771 0.015078 0.014729 0.015911  
3534.0 0.024193 0.020221 0.019869 0.019153 0.019408 0.019245 0.018981 0.018243 0.018171 0.017728 0.016988 0.016601 0.015783 0.015903 0.014484 0.014683 0.014979 0.014643 0.015813  
3536.0 0.023985 0.020104 0.019751 0.019036 0.019287 0.019126 0.018860 0.018130 0.018053 0.017608 0.016887 0.016497 0.015688 0.015809 0.014387 0.014596 0.014881 0.014559 0.015715  
3538.0 0.023779 0.019988 0.019633 0.018920 0.019167 0.019008 0.018740 0.018018 0.017936 0.017490 0.016787 0.016394 0.015593 0.015715 0.014291 0.014509 0.014783 0.014474 0.015618  
3540.0 0.023575 0.019873 0.019517 0.018805 0.019047 0.018892 0.018621 0.017906 0.017820 0.017372 0.016688 0.016291 0.015499 0.015622 0.014195 0.014423 0.014686 0.014390 0.015521  
3542.0 0.023374 0.019759 0.019402 0.018691 0.018929 0.018776 0.018502 0.017796 0.017705 0.017255 0.016589 0.016189 0.015406 0.015530 0.014100 0.014337 0.014590 0.014307 0.015425  
3544.0 0.023175 0.019646 0.019287 0.018577 0.018812 0.018661 0.018385 0.017686 0.017590 0.017139 0.016491 0.016088 0.015313 0.015438 0.014006 0.014251 0.014494 0.014223 0.015330  
3546.0 0.022978 0.019533 0.019173 0.018465 0.018695 0.018547 0.018268 0.017577 0.017477 0.017024 0.016393 0.015987 0.015221 0.015346 0.013912 0.014167 0.014399 0.014140 0.015234  
3548.0 0.022783 0.019421 0.019060 0.018353 0.018580 0.018434 0.018153 0.017469 0.017364 0.016910 0.016296 0.015887 0.015129 0.015255 0.013820 0.014082 0.014305 0.014057 0.015140  
3550.0 0.022591 0.019310 0.018948 0.018242 0.018465 0.018321 0.018038 0.017362 0.017253 0.016796 0.016199 0.015788 0.015038 0.015165 0.013727 0.013998 0.014211 0.013975 0.015046  
3552.0 0.022401 0.019200 0.018837 0.018133 0.018351 0.018210 0.017924 0.017256 0.017142 0.016684 0.016104 0.015690 0.014948 0.015075 0.013636 0.013915 0.014118 0.013893 0.014952  
3554.0 0.022212 0.019090 0.018727 0.018024 0.018239 0.018099 0.017811 0.017150 0.017032 0.016573 0.016008 0.015592 0.014858 0.014986 0.013545 0.013832 0.014026 0.013811 0.014859  
3556.0 0.022026 0.018981 0.018617 0.017916 0.018127 0.017990 0.017699 0.017045 0.016923 0.016462 0.015914 0.015495 0.014769 0.014897 0.013456 0.013750 0.013934 0.013729 0.014767  
3558.0 0.021843 0.018874 0.018509 0.017810 0.018017 0.017881 0.017588 0.016942 0.016815 0.016353 0.015820 0.015399 0.014680 0.014809 0.013367 0.013668 0.013843 0.013648 0.014675  
3560.0 0.021662 0.018768 0.018402 0.017704 0.017907 0.017774 0.017479 0.016840 0.016709 0.016245 0.015727 0.015304 0.014592 0.014721 0.013278 0.013587 0.013753 0.013567 0.014583  
3562.0 0.021483 0.018662 0.018295 0.017600 0.017799 0.017668 0.017370 0.016738 0.016603 0.016138 0.015635 0.015209 0.014505 0.014634 0.013191 0.013506 0.013663 0.013487 0.014492  
3564.0 0.021306 0.018557 0.018190 0.017496 0.017692 0.017563 0.017262 0.016637 0.016498 0.016032 0.015543 0.015115 0.014419 0.014548 0.013104 0.013426 0.013574 0.013407 0.014402  
3566.0 0.021131 0.018453 0.018085 0.017393 0.017585 0.017458 0.017155 0.016537 0.016394 0.015926 0.015452 0.015022 0.014332 0.014462 0.013018 0.013346 0.013485 0.013327 0.014312  
3568.0 0.020958 0.018350 0.017981 0.017291 0.017480 0.017354 0.017049 0.016438 0.016290 0.015822 0.015362 0.014930 0.014247 0.014377 0.012932 0.013267 0.013398 0.013248 0.014223  
3570.0 0.020787 0.018247 0.017878 0.017190 0.017375 0.017251 0.016944 0.016339 0.016188 0.015718 0.015272 0.014838 0.014162 0.014292 0.012847 0.013188 0.013311 0.013169 0.014134  
3572.0 0.020618 0.018145 0.017776 0.017090 0.017271 0.017149 0.016840 0.016242 0.016086 0.015615 0.015182 0.014747 0.014078 0.014207 0.012763 0.013110 0.013224 0.013090 0.014046  
3574.0 0.020451 0.018044 0.017674 0.016991 0.017168 0.017048 0.016736 0.016145 0.015986 0.015513 0.015094 0.014657 0.013994 0.014124 0.012680 0.013033 0.013138 0.013012 0.013958  
3576.0 0.020286 0.017944 0.017573 0.016892 0.017066 0.016947 0.016633 0.016049 0.015886 0.015412 0.015006 0.014567 0.013911 0.014040 0.012597 0.012956 0.013053 0.012934 0.013871  
3578.0 0.020123 0.017844 0.017473 0.016794 0.016964 0.016848 0.016532 0.015953 0.015787 0.015312 0.014918 0.014478 0.013828 0.013958 0.012515 0.012879 0.012969 0.012857 0.013784  
3580.0 0.019962 0.017745 0.017374 0.016697 0.016864 0.016749 0.016431 0.015859 0.015688 0.015213 0.014831 0.014390 0.013746 0.013875 0.012434 0.012803 0.012885 0.012780 0.013698  
3582.0 0.019802 0.017647 0.017275 0.016601 0.016764 0.016651 0.016330 0.015765 0.015591 0.015114 0.014745 0.014302 0.013664 0.013794 0.012353 0.012727 0.012802 0.012703 0.013612  
3584.0 0.019644 0.017550 0.017177 0.016506 0.016665 0.016554 0.016231 0.015672 0.015494 0.015017 0.014659 0.014215 0.013584 0.013713 0.012273 0.012652 0.012719 0.012626 0.013527  
3586.0 0.019489 0.017453 0.017080 0.016411 0.016567 0.016457 0.016132 0.015579 0.015398 0.014920 0.014574 0.014129 0.013503 0.013632 0.012194 0.012578 0.012637 0.012550 0.013442  
3588.0 0.019334 0.017357 0.016984 0.016318 0.016470 0.016361 0.016035 0.015488 0.015303 0.014824 0.014489 0.014043 0.013423 0.013552 0.012115 0.012503 0.012555 0.012474 0.013358  
3590.0 0.019182 0.017261 0.016888 0.016225 0.016373 0.016266 0.015938 0.015397 0.015209 0.014728 0.014405 0.013958 0.013344 0.013472 0.012037 0.012430 0.012475 0.012399 0.013274  
3592.0 0.019032 0.017167 0.016794 0.016133 0.016278 0.016172 0.015841 0.015307 0.015115 0.014634 0.014322 0.013873 0.013265 0.013393 0.011960 0.012356 0.012394 0.012324 0.013191  
3594.0 0.018883 0.017073 0.016699 0.016041 0.016183 0.016079 0.015746 0.015217 0.015023 0.014540 0.014239 0.013790 0.013187 0.013314 0.011883 0.012284 0.012315 0.012249 0.013108  
3596.0 0.018736 0.016980 0.016606 0.015951 0.016089 0.015986 0.015651 0.015128 0.014931 0.014448 0.014157 0.013706 0.013109 0.013236 0.011807 0.012211 0.012236 0.012175 0.013026  
3598.0 0.018590 0.016887 0.016513 0.015861 0.015996 0.015894 0.015558 0.015040 0.014839 0.014356 0.014075 0.013624 0.013032 0.013158 0.011731 0.012140 0.012157 0.012101 0.012944  
3600.0 0.018447 0.016795 0.016421 0.015772 0.015903 0.015803 0.015464 0.014953 0.014749 0.014264 0.013994 0.013542 0.012955 0.013081 0.011657 0.012068 0.012079 0.012027 0.012863  
3602.0 0.018305 0.016704 0.016330 0.015683 0.015811 0.015713 0.015372 0.014866 0.014659 0.014174 0.013913 0.013461 0.012879 0.013004 0.011582 0.011998 0.012002 0.011954 0.012783  
3604.0 0.018164 0.016613 0.016240 0.015596 0.015720 0.015623 0.015281 0.014780 0.014570 0.014084 0.013833 0.013380 0.012803 0.012928 0.011509 0.011927 0.011925 0.011881 0.012702  
3606.0 0.018025 0.016523 0.016150 0.015509 0.015630 0.015534 0.015190 0.014695 0.014482 0.013995 0.013753 0.013300 0.012728 0.012852 0.011436 0.011857 0.011849 0.011808 0.012623  
3608.0 0.017888 0.016434 0.016061 0.015423 0.015541 0.015446 0.015100 0.014610 0.014394 0.013907 0.013674 0.013221 0.012654 0.012777 0.011363 0.011788 0.011773 0.011736 0.012543  
3610.0 0.017753 0.016346 0.015972 0.015337 0.015452 0.015359 0.015010 0.014527 0.014307 0.013820 0.013596 0.013142 0.012580 0.012702 0.011291 0.011719 0.011698 0.011664 0.012465  
3612.0 0.017619 0.016258 0.015884 0.015253 0.015364 0.015272 0.014922 0.014443 0.014221 0.013733 0.013518 0.013064 0.012506 0.012628 0.011220 0.011650 0.011624 0.011593 0.012386  
3614.0 0.017487 0.016170 0.015797 0.015169 0.015277 0.015186 0.014834 0.014361 0.014136 0.013647 0.013441 0.012986 0.012433 0.012554 0.011150 0.011582 0.011550 0.011522 0.012309  
3616.0 0.017356 0.016084 0.015711 0.015086 0.015191 0.015101 0.014747 0.014279 0.014051 0.013562 0.013364 0.012909 0.012360 0.012481 0.011080 0.011515 0.011477 0.011451 0.012231  
3618.0 0.017226 0.015998 0.015625 0.015003 0.015105 0.015016 0.014661 0.014198 0.013967 0.013478 0.013287 0.012833 0.012288 0.012408 0.011010 0.011448 0.011404 0.011381 0.012155  
3620.0 0.017099 0.015913 0.015540 0.014921 0.015020 0.014932 0.014575 0.014117 0.013884 0.013394 0.013212 0.012757 0.012217 0.012335 0.010942 0.011381 0.011332 0.011311 0.012078  
3622.0 0.016972 0.015828 0.015456 0.014840 0.014936 0.014849 0.014490 0.014038 0.013802 0.013311 0.013136 0.012682 0.012146 0.012264 0.010873 0.011315 0.011260 0.011241 0.012002  
3624.0 0.016848 0.015744 0.015372 0.014760 0.014852 0.014766 0.014406 0.013958 0.013720 0.013229 0.013062 0.012607 0.012075 0.012192 0.010806 0.011249 0.011189 0.011172 0.011927  
3626.0 0.016724 0.015660 0.015289 0.014680 0.014769 0.014685 0.014322 0.013880 0.013639 0.013147 0.012987 0.012533 0.012005 0.012121 0.010739 0.011184 0.011118 0.011103 0.011852  
3628.0 0.016602 0.015578 0.015207 0.014601 0.014687 0.014603 0.014239 0.013802 0.013558 0.013066 0.012914 0.012459 0.011936 0.012051 0.010672 0.011119 0.011048 0.011034 0.011778  
3630.0 0.016482 0.015495 0.015125 0.014523 0.014606 0.014523 0.014157 0.013725 0.013478 0.012986 0.012841 0.012386 0.011867 0.011981 0.010606 0.011055 0.010979 0.010966 0.011704  
3632.0 0.016363 0.015414 0.015044 0.014445 0.014525 0.014443 0.014076 0.013648 0.013399 0.012907 0.012768 0.012314 0.011798 0.011911 0.010541 0.010991 0.010910 0.010898 0.011630  
3634.0 0.016245 0.015333 0.014964 0.014368 0.014445 0.014364 0.013995 0.013572 0.013321 0.012828 0.012696 0.012242 0.011730 0.011842 0.010476 0.010927 0.010841 0.010830 0.011557  
3636.0 0.016129 0.015253 0.014884 0.014292 0.014365 0.014285 0.013915 0.013497 0.013243 0.012750 0.012624 0.012171 0.011663 0.011773 0.010412 0.010864 0.010773 0.010763 0.011485  
3638.0 0.016014 0.015173 0.014805 0.014216 0.014287 0.014208 0.013836 0.013422 0.013166 0.012673 0.012553 0.012100 0.011596 0.011705 0.010348 0.010801 0.010706 0.010697 0.011412  
3640.0 0.015901 0.015094 0.014726 0.014141 0.014209 0.014130 0.013757 0.013348 0.013089 0.012596 0.012483 0.012030 0.011529 0.011638 0.010285 0.010739 0.010639 0.010630 0.011341  
3642.0 0.015789 0.015015 0.014648 0.014066 0.014131 0.014054 0.013679 0.013274 0.013014 0.012520 0.012412 0.011961 0.011463 0.011570 0.010222 0.010677 0.010573 0.010564 0.011270  
3644.0 0.015678 0.014938 0.014571 0.013993 0.014055 0.013978 0.013601 0.013201 0.012938 0.012445 0.012343 0.011892 0.011397 0.011504 0.010160 0.010616 0.010507 0.010498 0.011199  
3646.0 0.015569 0.014860 0.014494 0.013920 0.013979 0.013903 0.013525 0.013129 0.012864 0.012370 0.012274 0.011823 0.011332 0.011437 0.010098 0.010555 0.010442 0.010433 0.011129  
3648.0 0.015460 0.014784 0.014418 0.013847 0.013903 0.013828 0.013449 0.013057 0.012790 0.012296 0.012205 0.011755 0.011267 0.011371 0.010037 0.010495 0.010377 0.010368 0.011059  
3650.0 0.015354 0.014707 0.014343 0.013775 0.013828 0.013754 0.013373 0.012986 0.012717 0.012223 0.012137 0.011688 0.011203 0.011306 0.009977 0.010434 0.010313 0.010303 0.010989  
3652.0 0.015248 0.014632 0.014268 0.013704 0.013754 0.013681 0.013298 0.012915 0.012644 0.012150 0.012070 0.011621 0.011139 0.011241 0.009917 0.010375 0.010249 0.010239 0.010921  
3654.0 0.015144 0.014557 0.014194 0.013633 0.013681 0.013608 0.013224 0.012845 0.012572 0.012078 0.012002 0.011555 0.011076 0.011176 0.009857 0.010316 0.010185 0.010175 0.010852  
3656.0 0.015041 0.014483 0.014120 0.013563 0.013608 0.013536 0.013151 0.012776 0.012501 0.012006 0.011936 0.011489 0.011013 0.011112 0.009799 0.010257 0.010123 0.010112 0.010784  
3658.0 0.014939 0.014409 0.014047 0.013494 0.013536 0.013464 0.013078 0.012707 0.012430 0.011936 0.011870 0.011424 0.010951 0.011048 0.009740 0.010198 0.010060 0.010049 0.010716  
3660.0 0.014838 0.014335 0.013975 0.013425 0.013464 0.013393 0.013005 0.012639 0.012360 0.011865 0.011804 0.011359 0.010889 0.010985 0.009682 0.010140 0.009998 0.009986 0.010649  
3662.0 0.014739 0.014263 0.013903 0.013357 0.013393 0.013323 0.012934 0.012571 0.012290 0.011796 0.011739 0.011295 0.010827 0.010922 0.009625 0.010083 0.009937 0.009923 0.010583  
3664.0 0.014641 0.014191 0.013832 0.013290 0.013323 0.013253 0.012863 0.012504 0.012221 0.011727 0.011674 0.011231 0.010766 0.010860 0.009568 0.010026 0.009876 0.009861 0.010516  
3666.0 0.014544 0.014119 0.013761 0.013223 0.013253 0.013184 0.012792 0.012438 0.012153 0.011659 0.011610 0.011168 0.010706 0.010798 0.009511 0.009969 0.009816 0.009799 0.010451  
3668.0 0.014448 0.014048 0.013691 0.013156 0.013184 0.013116 0.012723 0.012372 0.012085 0.011591 0.011546 0.011105 0.010646 0.010736 0.009456 0.009912 0.009756 0.009738 0.010385  
3670.0 0.014353 0.013978 0.013621 0.013090 0.013116 0.013048 0.012653 0.012306 0.012018 0.011524 0.011483 0.011043 0.010586 0.010675 0.009400 0.009857 0.009697 0.009677 0.010320  
3672.0 0.014260 0.013908 0.013552 0.013025 0.013048 0.012980 0.012585 0.012242 0.011951 0.011457 0.011420 0.010981 0.010527 0.010615 0.009345 0.009801 0.009638 0.009616 0.010256  
3674.0 0.014167 0.013838 0.013484 0.012961 0.012981 0.012914 0.012517 0.012177 0.011885 0.011392 0.011358 0.010920 0.010468 0.010554 0.009291 0.009746 0.009579 0.009556 0.010192  
3676.0 0.014076 0.013770 0.013416 0.012896 0.012914 0.012847 0.012449 0.012114 0.011820 0.011326 0.011296 0.010859 0.010409 0.010495 0.009237 0.009691 0.009521 0.009496 0.010128  
3678.0 0.013986 0.013701 0.013349 0.012833 0.012848 0.012782 0.012382 0.012050 0.011755 0.011262 0.011234 0.010799 0.010352 0.010435 0.009183 0.009637 0.009463 0.009437 0.010065  
3680.0 0.013897 0.013634 0.013282 0.012770 0.012782 0.012717 0.012316 0.011988 0.011690 0.011197 0.011173 0.010739 0.010294 0.010376 0.009130 0.009583 0.009406 0.009377 0.010002  
3682.0 0.013809 0.013566 0.013216 0.012708 0.012717 0.012652 0.012250 0.011925 0.011627 0.011134 0.011113 0.010680 0.010237 0.010318 0.009078 0.009529 0.009350 0.009319 0.009940  
3684.0 0.013722 0.013500 0.013151 0.012646 0.012653 0.012588 0.012185 0.011864 0.011564 0.011071 0.011053 0.010621 0.010180 0.010260 0.009026 0.009476 0.009294 0.009260 0.009878  
